NTPTime,BVP,BVP_clean,TAG,emotion_HRI,shortNTPTime
0.0,-49.8183822631836,-0.7852389374191434,,,
16.0,-54.06702423095703,-1.153855028044834,,,
31.0,-58.39146423339844,-1.5619098170499854,,,
47.0,-63.09874725341797,-2.0400695011688144,,,
63.0,-68.97471618652344,-2.614473685773553,,,
78.0,-76.94374084472656,-3.296541792368203,,,
94.0,-87.72565460205078,-4.071717840603854,,,
109.0,-99.73959350585938,-4.89331137585686,,,
125.0,-109.37877655029295,-5.686511286237258,,,
141.0,-112.34445190429688,-6.3633910268408105,,,
156.0,-105.6337890625,-6.844426454571692,,,
172.0,-89.48612213134766,-7.078685686015518,,,
188.0,-67.34029388427734,-7.055344422810846,,,
203.0,-44.636695861816406,-6.803143532561704,,,
219.0,-23.12403106689453,-6.379438134385795,,,
234.0,-6.483497619628906,-5.853942681638132,,,
250.0,4.019058227539063,-5.292996091832797,,,
266.0,9.417007446289062,-4.748599487651721,,,
281.0,11.566200256347656,-4.25374068527543,,,
297.0,12.177230834960938,-3.8228971847862776,,,
313.0,11.927978515625,-3.45526606795196,,,
328.0,11.237297058105469,-3.138642641744708,,,
344.0,11.108924865722656,-2.853301134301085,,,
360.0,13.165386199951172,-2.5764326466733145,,,
375.0,18.330825805664062,-2.287721730259206,,,
391.0,26.69454574584961,-1.9755358974346355,,,
406.0,36.4804916381836,-1.6418584933604754,,,
422.0,44.43473434448242,-1.303590274244117,,,
438.0,47.01644134521485,-0.9887414002341602,,,
453.0,41.966270446777344,-0.7280378159211445,,,
469.0,29.867435455322266,-0.544576583448088,,,
485.0,13.98172378540039,-0.4452576692381584,,,
500.0,-0.4868087768554687,-0.4171935228437813,,,
516.0,-9.010372161865234,-0.430407328850904,,,
531.0,-8.719322204589844,-0.4457979525028266,,,
547.0,0.712310791015625,-0.4256007139720723,,,
563.0,17.268932342529297,-0.3430073885619111,,,
578.0,37.215450286865234,-0.1882233898401435,,,
594.0,56.02025604248047,0.0303974069157152,,,
610.0,69.81532287597656,0.2899597619200601,,,
625.0,76.18246459960938,0.5599558428560227,,,
641.0,74.59950256347656,0.8104197126055959,,,
656.0,66.51315307617188,1.0191355498171464,,,
672.0,54.25482177734375,1.176136009762751,,,
688.0,41.40481185913086,1.2844740429039734,,,
703.0,31.69400787353516,1.357224952885291,,,
719.0,27.44140625,1.4117298990229783,,,
735.0,28.19293212890625,1.462941850453997,,,
750.0,31.273155212402344,1.518021793259282,,,
766.0,32.99184036254883,1.573878747042879,,,
781.0,30.142772674560547,1.6183294771671644,,,
797.0,21.51175308227539,1.6344026186698457,,,
813.0,6.885379791259766,1.6064279648662023,,,
828.0,-11.514617919921877,1.526112520944692,,,
844.0,-29.87011909484864,1.3967958525498918,,,
860.0,-44.21353149414063,1.2344300727228883,,,
875.0,-51.32884216308594,1.064509490393124,,,
891.0,-48.8884162902832,0.9151883723307024,,,
906.0,-36.55182647705078,0.8081308718154584,,,
922.0,-17.409515380859375,0.7499404123258739,,,
938.0,1.2142181396484375,0.7276539185234163,,,
953.0,8.472412109375,0.7110060167050654,,,
969.0,-3.202705383300781,0.6617734187831991,,,
985.0,-33.68170928955078,0.5473511497826121,,,
1000.0,-74.4858169555664,0.3712041949297345,,,
1016.0,-112.15589141845705,0.1293406149508348,,,
1031.0,-133.79563903808594,-0.1333825877793998,,,
1047.0,-132.844482421875,-0.3789725224086185,,,
1063.0,-111.47355651855467,-0.5666405995342473,,,
1078.0,-71.81787109375,-0.6456584550186265,,,
1094.0,-26.4365348815918,-0.5999839860559582,,,
1110.0,9.326242446899414,-0.438962265514654,,,
1125.0,28.77254295349121,-0.1916368395930015,,,
1141.0,36.58918762207031,0.1035039364524446,,,
1156.0,41.38344192504883,0.408647895513705,,,
1172.0,47.76356506347656,0.6931836865129988,,,
1188.0,54.42237854003906,0.935893318031136,,,
1203.0,57.58953475952149,1.1243856321310122,,,
1219.0,54.70401763916016,1.2539695142617553,,,
1235.0,45.1352767944336,1.3271952316693612,,,
1250.0,32.42817687988281,1.353809964082936,,,
1266.0,22.250247955322266,1.350038506429326,,,
1281.0,18.957693099975582,1.336343579943664,,,
1297.0,23.57655143737793,1.333721526235986,,,
1313.0,34.18204498291016,1.359405583486168,,,
1328.0,47.58562469482422,1.4231269461142146,,,
1344.0,61.38445281982422,1.524862770820163,,,
1360.0,73.94438171386719,1.6545818600715614,,,
1375.0,82.78002166748047,1.794098186894959,,,
1391.0,85.46823120117188,1.920755887204675,,,
1406.0,79.95082092285156,2.012224054293004,,,
1422.0,64.70523071289062,2.051239568965788,,,
1438.0,39.6000862121582,2.028926188983365,,,
1453.0,6.987981796264648,1.9455718797304844,,,
1469.0,-28.973041534423828,1.8085267267770797,,,
1485.0,-62.79640197753906,1.627980499439167,,,
1500.0,-90.1208038330078,1.4123388217715205,,,
1516.0,-109.53497314453124,1.1652290622771324,,,
1531.0,-121.42840576171876,0.8855491183087919,,,
1547.0,-126.91864013671876,0.5812740088650477,,,
1563.0,-127.09259033203124,0.2402949979900602,,,
1578.0,-123.0264892578125,-0.1368616770234691,,,
1594.0,-111.11784362792967,-0.5258345624648797,,,
1610.0,-93.0871810913086,-0.9057229547533372,,,
1625.0,-72.50532531738281,-1.2556239512952896,,,
1641.0,-53.63338851928711,-1.5603962158725646,,,
1656.0,-40.17242431640625,-1.814549261178673,,,
1672.0,-33.76866912841797,-2.022930397961919,,,
1688.0,-33.4894905090332,-2.198183439884984,,,
1703.0,-36.59292984008789,-2.3559990343257837,,,
1719.0,-39.50106430053711,-2.5096820553236947,,,
1735.0,-39.78252029418945,-2.6655449418130424,,,
1750.0,-36.12664413452149,-2.8202609452408964,,,
1766.0,-28.05831718444824,-2.960763613371878,,,
1781.0,-16.20846939086914,-3.06671743181928,,,
1797.0,-1.511607050895691,-3.1151162595231985,,,
1813.0,14.91889190673828,-3.086207286357757,,,
1828.0,31.98455619812012,-2.96961996117009,,,
1844.0,48.21334838867188,-2.769262936526953,,,
1860.0,61.57941436767578,-2.505356121367138,,,
1875.0,70.0975112915039,-2.212156110730678,,,
1891.0,72.05929565429688,-1.9307863310133335,,,
1906.0,67.54539489746094,-1.6981763763855158,,,
1922.0,56.344482421875,-1.5350956274043888,,,
1938.0,41.39446258544922,-1.4377325439231616,,,
1953.0,27.111469268798828,-1.3770610627670643,,,
1969.0,17.15483856201172,-1.3077383620568692,,,
1985.0,13.010940551757812,-1.1842398913712706,,,
2000.0,13.805213928222656,-0.9783483686786928,,,
2016.0,17.07073974609375,-0.6910063429369258,,,
2031.0,19.789024353027344,-0.3653975630357318,,,
2047.0,19.42340469360352,-0.0417911889385542,,,
2063.0,14.48260498046875,0.2349210757136688,,,
2078.0,5.233234405517578,0.4102763718249286,,,
2094.0,-6.076904296875,0.4658215039950822,,,
2110.0,-16.636844635009766,0.4092264735219758,,,
2125.0,-24.199920654296875,0.267291859052219,,,
2141.0,-27.336719512939453,0.0749542182075753,,,
2156.0,-25.12955474853516,-0.1342754498762728,,,
2172.0,-17.087860107421875,-0.3333510468690442,,,
2188.0,-3.8067626953125,-0.5026655049293305,,,
2203.0,12.455085754394531,-0.6296284629773865,,,
2219.0,27.905372619628903,-0.7092276134066936,,,
2235.0,39.23242950439453,-0.7459209758826261,,,
2250.0,43.174713134765625,-0.7551868762770321,,,
2266.0,37.23295593261719,-0.7624997585242093,,,
2281.0,21.043243408203125,-0.7987033336794453,,,
2297.0,-2.195838928222656,-0.8927767217237598,,,
2313.0,-26.5615234375,-1.0643579035915514,,,
2328.0,-45.96006774902344,-1.3182198026617138,,,
2344.0,-56.544395446777344,-1.641575775329177,,,
2360.0,-56.91719055175781,-2.003873784689877,,,
2375.0,-44.66324615478516,-2.3585801661822177,,,
2391.0,-17.303428649902344,-2.647200940803491,,,
2406.0,25.92975616455078,-2.8064319141823693,,,
2422.0,82.74474334716797,-2.778936733438054,,,
2438.0,147.34170532226562,-2.589981376968752,,,
2453.0,210.91357421875,-2.324443513996362,,,
2469.0,262.993408203125,-1.9759475301607483,,,
2485.0,294.4690246582031,-1.5476124763238472,,,
2500.0,287.9578857421875,-1.0505449485713785,,,
2516.0,238.5529327392578,-0.5009574313536952,,,
2531.0,160.79444885253906,0.0828036489251629,,,
2547.0,81.1186752319336,0.598682323815632,,,
2563.0,20.06210708618164,0.9635794416217608,,,
2578.0,-16.91509246826172,1.2066926890250729,,,
2594.0,-35.73299026489258,1.348272377068401,,,
2610.0,-45.56910705566406,1.4135667481569707,,,
2625.0,-53.06232452392578,1.421297472168363,,,
2641.0,-60.4921875,1.3869392135756122,,,
2656.0,-65.11454010009766,1.3270484811862384,,,
2672.0,-63.54227066040039,1.2604016711637402,,,
2688.0,-55.73353958129883,1.2048640619783664,,,
2703.0,-45.09709548950195,1.172110309637946,,,
2719.0,-35.80165100097656,1.163603125385866,,,
2735.0,-30.468355178833008,1.1702372499189602,,,
2750.0,-29.64912223815918,1.175843714159449,,,
2766.0,-32.391136169433594,1.1628143621710387,,,
2781.0,-37.03998947143555,1.117380187990178,,,
2797.0,-40.3991813659668,1.03264183121275,,,
2813.0,-39.687347412109375,0.9087913176493236,,,
2828.0,-34.5581169128418,0.7513195509044298,,,
2844.0,-27.244443893432617,0.5686813603246913,,,
2860.0,-20.503829956054688,0.3705988083805199,,,
2875.0,-16.323335647583008,0.1672307322140593,,,
2891.0,-15.487557411193848,-0.0314665207302334,,,
2906.0,-17.92470359802246,-0.2170833462131275,,,
2922.0,-23.24468040466309,-0.3850797888992016,,,
2938.0,-30.57770729064941,-0.5372753748265622,,,
2953.0,-39.270240783691406,-0.6828682088802587,,,
2969.0,-49.86071014404297,-0.8364560487052798,,,
2985.0,-63.0256462097168,-1.012764867973147,,,
3000.0,-77.54350280761719,-1.21961877988635,,,
3016.0,-89.55089569091797,-1.4520926248030703,,,
3032.0,-93.92796325683594,-1.6908486619088388,,,
3047.0,-86.93655395507812,-1.9061193174444335,,,
3063.0,-67.17965698242188,-2.0662998774851107,,,
3078.0,-39.763816833496094,-2.147911499502928,,,
3094.0,-11.924182891845703,-2.142992419548014,,,
3110.0,9.526329040527344,-2.0611973185718777,,,
3125.0,20.911828994750977,-1.9263371998797527,,,
3141.0,22.851806640625,-1.7693812271298286,,,
3157.0,19.092071533203125,-1.6208903847571283,,,
3172.0,13.87782382965088,-1.5052162124241577,,,
3188.0,9.75263786315918,-1.4372940248788049,,,
3203.0,6.97648811340332,-1.4215660740014715,,,
3219.0,4.537864685058594,-1.452176495497045,,,
3235.0,2.0372257232666016,-1.5140261573572618,,,
3250.0,-0.07491135597229,-1.584933082398584,,,
3266.0,-0.8303457498550415,-1.6393247412915033,,,
3282.0,0.4454669952392578,-1.6533391316290775,,,
3297.0,3.519216537475586,-1.6103085915998443,,,
3313.0,7.236232757568359,-1.5050782686799034,,,
3328.0,10.089110374450684,-1.3459589942275778,,,
3344.0,10.82099437713623,-1.154122702938332,,,
3360.0,9.054329872131348,-0.9611566465784418,,,
3375.0,5.735783576965332,-0.8056490980900954,,,
3391.0,2.356421947479248,-0.7291028767693791,,,
3407.0,0.315964937210083,-0.770792159162057,,,
3422.0,0.27425217628479,-0.96108784561531,,,
3438.0,1.9579949378967283,-1.2502353076735078,,,
3453.0,4.359320163726807,-1.5365417397211234,,,
3469.0,6.268172264099121,-1.820510815455243,,,
3485.0,6.801163673400879,-2.104341884540388,,,
3500.0,5.701391220092773,-2.390795731119723,,,
3516.0,3.5962843894958496,-2.6819080887690934,,,
3532.0,1.4873628616333008,-2.978145258630925,,,
3547.0,0.2559020519256592,-3.2054004500333506,,,
3563.0,0.2875664234161377,-3.2835006489007217,,,
3578.0,1.3843131065368652,-3.248833667312645,,,
3594.0,2.9029932022094727,-3.143161533346284,,,
3610.0,4.1183695793151855,-3.0014662608507914,,,
3625.0,4.52629280090332,-2.846933918672716,,,
3641.0,4.023632526397705,-2.6925442673173654,,,
3657.0,2.9818930625915527,-2.5456479486833192,,,
3672.0,1.9588661193847656,-2.4116486150165515,,,
3688.0,1.4038329124450684,-2.294899192736732,,,
3703.0,1.502333164215088,-2.19741541147967,,,
3719.0,2.100189208984375,-2.1173844630703216,,,
3735.0,2.8581418991088867,-2.0491843032247696,,,
3750.0,3.415412425994873,-1.9853363754941955,,,
3766.0,3.5798115730285645,-1.919508759164672,,,
3782.0,3.3753371238708496,-1.849078653389106,,,
3797.0,3.05031156539917,-1.7760169855227244,,,
3813.0,2.897136211395264,-1.7057264454140495,,,
3828.0,3.098878860473633,-1.644474347480055,,,
3844.0,3.651955127716065,-1.5966826473886286,,,
3860.0,4.348512172698975,-1.5632394237689355,,,
3875.0,4.926364898681641,-1.5412866346515284,,,
3891.0,5.207523345947266,-1.525105037027286,,,
3907.0,5.190397262573242,-1.5072752273587806,,,
3922.0,5.127475738525391,-1.4794565650457123,,,
3938.0,5.355714797973633,-1.4327250313447843,,,
3953.0,6.176935195922852,-1.3580379410433034,,,
3969.0,7.648548126220703,-1.2476044184790354,,,
3985.0,9.543895721435549,-1.0974771247025688,,,
4000.0,11.399541854858398,-0.9106867813409022,,,
4016.0,12.724428176879885,-0.6993113815572946,,,
4032.0,13.264581680297852,-0.4837430838781878,,,
4047.0,13.158317565917969,-0.2884316434163837,,,
4063.0,12.965883255004885,-0.1351532635782981,,,
4078.0,13.406940460205078,-0.0363930400368856,,,
4094.0,15.07601547241211,0.00826535888159,,,
4110.0,18.07491874694824,0.0111125581046812,,,
4125.0,21.9444580078125,-0.008784825751461,,,
4141.0,25.76694107055664,-0.0322922302614994,,,
4157.0,28.608585357666016,-0.0455193992178598,,,
4172.0,29.95877456665039,-0.0417701823640875,,,
4188.0,30.05146026611328,-0.0200955331147944,,,
4203.0,29.82440948486328,0.0179123976692452,,,
4219.0,30.543556213378903,0.0709292068818689,,,
4235.0,33.18487548828125,0.1389080250981494,,,
4250.0,37.95964431762695,0.2222710122783786,,,
4266.0,44.1220588684082,0.320370008852695,,,
4282.0,50.25490188598633,0.4305514366918819,,,
4297.0,55.064064025878906,0.5485739992393958,,,
4313.0,57.755859375,0.6702053128665442,,,
4328.0,58.54521560668945,0.7931561442691125,,,
4344.0,58.46051406860352,0.9184233656105352,,,
4360.0,58.830997467041016,1.0505237833073429,,,
4375.0,60.84024810791016,1.1966433383248318,,,
4391.0,65.38435363769531,1.3650339073448086,,,
4407.0,73.01713562011719,1.5629653193216462,,,
4422.0,83.6470718383789,1.7943997510735727,,,
4438.0,95.92118072509766,2.057607644529878,,,
4453.0,106.65265655517578,2.343280015380917,,,
4469.0,111.1778564453125,2.6272490911150364,,,
4485.0,104.79369354248048,2.8995411240799718,,,
4500.0,84.98751068115234,3.127851290555345,,,
4516.0,53.21326446533203,3.290642223652977,,,
4532.0,14.99285888671875,3.3758425747175207,,,
4547.0,-21.940704345703125,3.3838911549302897,,,
4563.0,-50.71836853027344,3.327089835859208,,,
4578.0,-67.91278076171875,3.225573052885804,,,
4594.0,-74.3460693359375,3.1016032011846195,,,
4610.0,-73.73526000976562,2.974418763316353,,,
4625.0,-70.26725769042969,2.857274630300196,,,
4641.0,-66.56278991699219,2.7570476858921658,,,
4657.0,-63.16773986816406,2.675605636304795,,,
4672.0,-59.46284484863281,2.611665285142802,,,
4688.0,-55.04176330566406,2.562198505769412,,,
4703.0,-50.52421569824219,2.5231835533017817,,,
4719.0,-47.25582885742188,2.490081204142246,,,
4735.0,-46.37603759765625,2.4584942972672432,,,
4750.0,-47.96244812011719,2.425105736542828,,,
4766.0,-50.93836975097656,2.388539566700142,,,
4782.0,-53.68229675292969,2.349616960653836,,,
4797.0,-54.75949096679688,2.3107123529954974,,,
4813.0,-53.79579162597656,2.274393709891389,,,
4828.0,-51.529052734375,2.2419420110235566,,,
4844.0,-49.37934875488281,2.2124347456423243,,,
4860.0,-48.7713623046875,2.182799939400885,,,
4875.0,-50.51087951660156,2.148767157067296,,,
4891.0,-54.45951843261719,2.106223435280912,,,
4907.0,-59.69535827636719,2.0523346201291086,,,
4922.0,-64.90203857421875,1.9859689851311015,,,
4938.0,-69.09490966796875,1.907343695796376,,,
4953.0,-71.96292114257812,1.8171925361433925,,,
4969.0,-73.92361450195312,1.7159336560208922,,,
4985.0,-75.82194519042969,1.6032286806267306,,,
5000.0,-78.51080322265625,1.4780479896394825,,,
5016.0,-82.44606018066406,1.3390630222510853,,,
5032.0,-87.57260131835938,1.1850384165979408,,,
5047.0,-93.38011169433594,1.0149617100943875,,,
5063.0,-99.11174011230467,0.8278682832755798,,,
5078.0,-104.28126525878906,0.6225507399545513,,,
5094.0,-108.80442810058594,0.397439169005274,,,
5110.0,-112.89918518066406,0.1508395425746646,,,
5125.0,-117.01910400390624,-0.1185161857210724,,,
5141.0,-121.50479125976562,-0.4108725398783808,,,
5157.0,-126.33293151855467,-0.7251259448762465,,,
5172.0,-131.045654296875,-1.058941308780582,,,
5188.0,-135.4818115234375,-1.4092072364789627,,,
5203.0,-138.4562530517578,-1.7692814181057874,,,
5219.0,-138.89559936523438,-2.134559128303527,,,
5235.0,-135.90516662597656,-2.5087955377064537,,,
5250.0,-128.93710327148438,-2.8866452366803155,,,
5266.0,-117.736328125,-3.2566777482464957,,,
5282.0,-102.37753295898438,-3.608884160839888,,,
5297.0,-83.25392150878906,-3.9315077033664863,,,
5313.0,-61.01286315917969,-4.212644839784391,,,
5328.0,-36.55918884277344,-4.442508501031328,,,
5344.0,-10.944671630859377,-4.61579870033597,,,
5360.0,14.563369750976562,-4.733536443459025,,,
5375.0,38.63739013671875,-4.803768935000432,,,
5391.0,60.0704345703125,-4.840702796656806,,,
5407.0,77.94580078125,-4.862077401582484,,,
5422.0,91.75737762451172,-4.885012763010764,,,
5438.0,101.35152435302734,-4.92115865090856,,,
5453.0,106.9390869140625,-4.972556330503389,,,
5469.0,109.0437240600586,-5.023039945655324,,,
5485.0,108.40237426757812,-5.067179572220425,,,
5500.0,105.7974624633789,-5.074623026815176,,,
5516.0,102.06745910644533,-5.024455279085544,,,
5532.0,97.95996856689452,-4.904921825466046,,,
5547.0,94.12822723388672,-4.716874364081964,,,
5563.0,91.00912475585938,-4.472898748202055,,,
5578.0,88.82003784179688,-4.192756083026517,,,
5594.0,87.6083755493164,-3.897291163710365,,,
5610.0,87.23587036132812,-3.6033640817748407,,,
5625.0,87.49790954589844,-3.321499159808869,,,
5641.0,88.02114868164062,-3.0563918517502,,,
5657.0,88.31608581542969,-2.809081534876816,,,
5672.0,88.03936004638672,-2.579170476932517,,,
5688.0,86.88526916503906,-2.3660138367981616,,,
5703.0,84.75849151611328,-2.1688078398826134,,,
5719.0,81.68045043945312,-1.986264446922912,,,
5735.0,77.68681335449219,-1.8166572297648471,,,
5750.0,72.87064361572266,-1.6585243064867516,,,
5766.0,67.35011291503906,-1.511655813711978,,,
5782.0,61.27333068847656,-1.3776439987091853,,,
5797.0,54.83112716674805,-1.2594426892176689,,,
5813.0,48.24131774902344,-1.1599353808349413,,,
5829.0,41.84555816650391,-1.0800969660138011,,,
5844.0,36.04636001586914,-1.0176124327668306,,,
5860.0,31.31991958618164,-0.9666410124199386,,,
5875.0,28.18146514892578,-0.9188888214609776,,,
5891.0,26.909130096435547,-0.865548423112033,,,
5907.0,27.48434066772461,-0.7992746176524628,,,
5922.0,29.66157531738281,-0.7153707676812009,,,
5938.0,33.080169677734375,-0.6117437470164048,,,
5954.0,37.34214401245117,-0.4877560906671253,,,
5969.0,42.28868103027344,-0.3425930731768138,,,
5985.0,48.00580596923828,-0.1739535867263441,,,
6000.0,54.79246139526367,0.0223063466985067,,,
6016.0,62.79444885253906,0.251406263123424,,,
6032.0,71.9395523071289,0.5181029758683912,,,
6047.0,81.7049560546875,0.8250920397080145,,,
6063.0,91.30599212646484,1.1720967738448511,,,
6079.0,99.78880310058594,1.5560930749739896,,,
6094.0,106.50534057617188,1.9726090171507964,,,
6110.0,111.33454895019533,2.4175358802399964,,,
6125.0,114.7739715576172,2.8886083286390725,,,
6141.0,117.76319122314452,3.3857860052821964,,,
6157.0,121.13748168945312,3.910187125357646,,,
6172.0,125.1417465209961,4.4618333902909,,,
6188.0,128.65184020996094,5.03701873409394,,,
6204.0,129.873046875,5.623138996914067,,,
6219.0,126.9662094116211,6.203744147468315,,,
6235.0,118.64256286621094,6.766716998518302,,,
6250.0,104.62985229492188,7.290485839273403,,,
6266.0,86.13456726074219,7.751135598176996,,,
6282.0,65.2708740234375,8.132779993587855,,,
6297.0,44.19780731201172,8.424821565259347,,,
6313.0,24.30941772460937,8.621290560086319,,,
6329.0,5.7239532470703125,8.71893589583794,,,
6344.0,-12.59222412109375,8.715009664918988,,,
6360.0,-32.64752197265625,8.605774126306306,,,
6375.0,-56.06706237792969,8.386477057348152,,,
6391.0,-83.71612548828125,8.053008839591046,,,
6407.0,-115.29302978515624,7.60483670311544,,,
6422.0,-148.89256286621094,7.097904561145248,,,
6438.0,-181.21961975097656,6.571170987379308,,,
6454.0,-208.2289123535156,6.034383697905085,,,
6469.0,-225.988037109375,5.496048282791391,,,
6485.0,-232.38092041015625,4.962907915211074,,,
6500.0,-228.01231384277344,4.439676019644157,,,
6516.0,-216.70005798339844,3.929010666200635,,,
6532.0,-204.5289001464844,3.4316950011127973,,,
6547.0,-196.97366333007807,2.946975476027903,,,
6563.0,-196.25924682617188,2.473004260280317,,,
6579.0,-200.1219787597656,2.007331559527503,,,
6594.0,-202.5585479736328,1.5473967420093555,,,
6610.0,-196.8539581298828,1.0909716595076673,,,
6625.0,-179.10963439941406,0.6365121845026852,,,
6641.0,-150.24073791503906,0.1833767123208856,,,
6657.0,-115.43815612792967,-0.198279998433863,,,
6672.0,-81.92247009277344,-0.5000625777792816,,,
6688.0,-55.8323974609375,-0.7341932720440841,,,
6704.0,-39.993438720703125,-0.9200596491293648,,,
6719.0,-33.69795227050781,-1.0764531544820155,,,
6735.0,-33.019439697265625,-1.2142283994068377,,,
6750.0,-32.47076416015625,-1.3321847221474503,,,
6766.0,-26.848602294921875,-1.4177210909700453,,,
6782.0,-12.702545166015623,-1.4520463724224155,,,
6797.0,9.956680297851562,-1.4180306678200048,,,
6813.0,37.265167236328125,-1.3077431016247818,,,
6829.0,62.80647277832031,-1.126766083776042,,,
6844.0,80.19876098632812,-0.8935854390528569,,,
6860.0,85.77677917480469,-0.6343248489327271,,,
6875.0,80.22151184082031,-0.3750155234382893,,,
6891.0,68.19931030273438,-0.1345972014533949,,,
6907.0,55.81321716308594,0.0785608667001884,,,
6922.0,47.83085632324219,0.2654771791734806,,,
6938.0,45.49136352539063,0.431671492396649,,,
6954.0,46.612091064453125,0.581091185797045,,,
6969.0,47.37594604492188,0.711702254085824,,,
6985.0,44.025390625,0.8146538048475157,,,
7000.0,35.021087646484375,0.8772330766072655,,,
7016.0,21.87841796875,0.8881830717352427,,,
7032.0,7.727508544921875,0.8430319293212125,,,
7047.0,-3.388824462890625,0.7471689891026071,,,
7063.0,-7.758682250976562,0.6153580250344974,,,
7079.0,-3.859100341796875,0.4677791244296078,,,
7094.0,7.35089111328125,0.3240086357012201,,,
7110.0,22.74205017089844,0.197112252337419,,,
7125.0,37.95356750488281,0.0899756210995048,,,
7141.0,48.85920715332031,-0.0048381584942288,,,
7157.0,53.22314453125,-0.1017111019040138,,,
7172.0,50.98979187011719,-0.2163370329064216,,,
7188.0,43.47694396972656,-0.3598399558578333,,,
7204.0,33.129180908203125,-0.5346390479726856,,,
7219.0,22.09785461425781,-0.73336295164005,,,
7235.0,11.988616943359377,-0.9410590379552464,,,
7250.0,3.939361572265625,-1.1398928909689403,,,
7266.0,-2.0133819580078125,-1.3147712309421615,,,
7282.0,-6.703048706054688,-1.4580108542994048,,,
7297.0,-11.74261474609375,-1.5713914150620356,,,
7313.0,-19.522476196289062,-1.6646628310652576,,,
7329.0,-32.069091796875,-1.750707119650483,,,
7344.0,-49.73260498046875,-1.838800011706848,,,
7360.0,-70.31617736816406,-1.9283446328883165,,,
7375.0,-89.3165283203125,-2.0056012642735084,,,
7391.0,-101.5040283203125,-2.0450827331945822,,,
7407.0,-102.99868774414062,-2.015619656172676,,,
7422.0,-92.93727111816406,-1.9388875228071365,,,
7438.0,-73.90576171875,-1.822266151775386,,,
7454.0,-50.35838317871094,-1.651765295684442,,,
7469.0,-26.45248413085937,-1.4228324057642263,,,
7485.0,-5.4195098876953125,-1.140219992129784,,,
7500.0,11.014144897460938,-0.8162097328912875,,,
7516.0,21.98545837402344,-0.4678562569725804,,,
7532.0,26.6090087890625,-0.1136287988076359,,,
7547.0,24.565597534179688,0.2303671744964779,,,
7563.0,17.097854614257812,0.5542008114768096,,,
7579.0,7.43798828125,0.8570738260951912,,,
7594.0,0.663330078125,1.1482184072779464,,,
7610.0,1.5664596557617188,1.4448432960685416,,,
7625.0,12.639678955078123,1.767252142655576,,,
7641.0,32.43379211425781,2.132523908196291,,,
7657.0,56.183692932128906,2.479115767760536,,,
7672.0,77.9273681640625,2.796555454195212,,,
7688.0,92.35124969482422,3.0850604590970003,,,
7704.0,97.00253295898438,3.3459832782126737,,,
7719.0,92.44996643066406,3.579418027979932,,,
7735.0,81.4271240234375,3.781662453548191,,,
7750.0,67.76502227783203,3.9438107807337865,,,
7766.0,54.12115478515625,4.052530591571264,,,
7782.0,41.8506088256836,4.093304190513347,,,
7797.0,31.382080078125,4.0552698805966,,,
7813.0,22.29432678222656,3.935789520699805,,,
7829.0,14.23198699951172,3.742634822197871,,,
7844.0,6.929313659667969,3.4925670710046237,,,
7860.0,-0.490234375,3.206776576080934,,,
7875.0,-8.879470825195312,2.905250258142444,,,
7891.0,-18.28877258300781,2.602677655213433,,,
7907.0,-27.17548370361328,2.307605723206971,,,
7922.0,-32.79377746582031,2.024722019472591,,,
7938.0,-32.227752685546875,1.7584784493401082,,,
7954.0,-24.411094665527344,1.515727863531073,,,
7969.0,-10.975189208984377,1.3058536727532617,,,
7985.0,3.978179931640625,1.1384197830843654,,,
8000.0,16.175765991210938,1.0196911032502245,,,
8016.0,23.010406494140625,0.9498014171770174,,,
8032.0,24.9912338256836,0.9218477888676376,,,
8047.0,24.82872009277344,0.9232512621598058,,,
8063.0,25.677490234375,0.9388847614994285,,,
8079.0,29.40660858154297,0.9549690288270468,,,
8094.0,35.83088684082031,0.9625206598659052,,,
8110.0,43.699501037597656,0.9591321139503696,,,
8125.0,51.929161071777344,0.9481836841418224,,,
8141.0,59.55194091796875,0.9354124275820328,,,
8157.0,64.64115905761719,0.9240041108174396,,,
8172.0,64.11933898925781,0.9104741036953122,,,
8188.0,54.289817810058594,0.883783626449622,,,
8204.0,33.43106842041016,0.8289698778756361,,,
8219.0,3.7742919921875,0.7344022756191702,,,
8235.0,-27.86982727050781,0.5996648742047236,,,
8250.0,-51.887657165527344,0.4401927919832625,,,
8266.0,-59.99205017089844,0.2857738095119299,,,
8282.0,-49.036651611328125,0.1725250480138477,,,
8297.0,-23.35693359375,0.1308353535214983,,,
8313.0,6.257362365722656,0.173693232206736,,,
8329.0,26.24151611328125,0.2899327085619116,,,
8344.0,25.50353240966797,0.4452022983710291,,,
8360.0,-0.3313446044921875,0.5906434772622333,,,
8375.0,-46.99137115478516,0.6764837806967161,,,
8391.0,-103.21991729736328,0.6660477744063216,,,
8407.0,-154.28240966796875,0.6078699532676688,,,
8422.0,-187.24801635742188,0.5311378199021287,,,
8438.0,-194.7619171142578,0.4145164488703782,,,
8454.0,-176.338623046875,0.2440155927794343,,,
8469.0,-137.72833251953125,0.0150827028592191,,,
8485.0,-87.96224975585938,-0.1930274881110504,,,
8501.0,-35.72208404541016,-0.3100390049196945,,,
8516.0,12.656501770019531,-0.3244480045604618,,,
8532.0,53.30628204345703,-0.2380687051279796,,,
8547.0,83.64814758300781,-0.0653658175096382,,,
8563.0,101.42518615722656,0.1668491230103726,,,
8579.0,104.58587646484376,0.4206141443425802,,,
8594.0,92.41275024414062,0.6508095617274402,,,
8610.0,66.8658218383789,0.8128541697908634,,,
8626.0,33.548675537109375,0.8728277687812928,,,
8641.0,0.4259872436523437,0.8166851034190575,,,
8657.0,-24.56800079345703,0.6546601614659517,,,
8672.0,-36.14176940917969,0.4184401061450724,,,
8688.0,-33.382713317871094,0.151605401780062,,,
8704.0,-19.81463623046875,-0.1032404733985756,,,
8719.0,-1.997154235839844,-0.3157557526895749,,,
8735.0,13.067916870117188,-0.4733908191934953,,,
8751.0,20.490158081054688,-0.5795903797039651,,,
8766.0,19.45182037353516,-0.6463180284231297,,,
8782.0,13.659172058105469,-0.6848710111601375,,,
8797.0,9.209831237792969,-0.6992933564209651,,,
8813.0,11.129554748535156,-0.6850105499133663,,,
8829.0,21.3482666015625,-0.6325770525041828,,,
8844.0,36.78311920166016,-0.534089154236754,,,
8860.0,51.20509338378906,-0.3889684520866565,,,
8876.0,58.4981689453125,-0.2066517126693118,,,
8891.0,55.28923034667969,-0.0055056301801805,,,
8907.0,42.58393096923828,0.1910678694450203,,,
8922.0,24.76183319091797,0.3596226998696898,,,
8938.0,7.0439300537109375,0.4812677309087583,,,
8954.0,-6.972991943359375,0.5450815024679361,,,
8969.0,-16.13538360595703,0.5500940067531598,,,
8985.0,-21.229751586914062,0.5056821941676628,,,
9001.0,-23.20313262939453,0.4300497341038346,,,
9016.0,-21.40294647216797,0.3464603032204554,,,
9032.0,-14.37939453125,0.2774047377609704,,,
9047.0,-1.5148544311523438,0.237839706178231,,,
9063.0,14.835281372070312,0.2295512219348414,,,
9079.0,29.024314880371094,0.2389431579886216,,,
9094.0,34.54370880126953,0.2397657779236644,,,
9110.0,27.22199249267578,0.2006410526684728,,,
9126.0,7.734859466552734,0.095340783554663,,,
9141.0,-18.780990600585938,-0.0875684429959732,,,
9157.0,-44.76627349853516,-0.3392595311389111,,,
9172.0,-64.1553726196289,-0.6316880299068464,,,
9188.0,-74.56210327148438,-0.9252235838806044,,,
9204.0,-77.45387268066406,-1.1804699968769985,,,
9219.0,-76.2431411743164,-1.3701496598717091,,,
9235.0,-73.62091064453125,-1.486712292173641,,,
9251.0,-69.81703186035156,-1.5427971421458373,,,
9266.0,-62.92557907104492,-1.5643189987355266,,,
9282.0,-50.91128921508789,-1.5787508269848556,,,
9297.0,-32.764556884765625,-1.6030341735816844,,,
9313.0,-10.32760238647461,-1.6357030780105328,,,
9329.0,12.75493621826172,-1.65616086940719,,,
9344.0,31.627166748046875,-1.631241812277755,,,
9360.0,42.173118591308594,-1.526372155346587,,,
9376.0,42.91965866088867,-1.3170009165398828,,,
9391.0,35.96123504638672,-0.9961720975894656,,,
9407.0,26.647029876708984,-0.6382039173773749,,,
9422.0,21.671390533447266,-0.2870241869871992,,,
9438.0,26.582931518554688,0.0778789387246209,,,
9454.0,42.99746322631836,0.4810871355555148,,,
9469.0,68.21833801269531,0.9424413763765076,,,
9485.0,96.52526092529295,1.3946329761622185,,,
9501.0,120.68907165527344,1.7698927143936156,,,
9516.0,134.04615783691406,2.0247672683813045,,,
9532.0,132.28623962402344,2.1729795410495067,,,
9547.0,114.58596801757812,2.2182290475825783,,,
9563.0,84.1724853515625,2.153149966882194,,,
9579.0,48.03883361816406,2.0059849280482824,,,
9594.0,14.984912872314451,1.821548543541098,,,
9610.0,-6.968040466308594,1.6516660968354526,,,
9626.0,-13.593650817871094,1.540782994741786,,,
9641.0,-6.6719512939453125,1.5118926680895783,,,
9657.0,6.79864501953125,1.5586909422063475,,,
9672.0,17.109603881835938,1.6478147670779726,,,
9688.0,16.162288665771484,1.7308788029656144,,,
9704.0,1.4850349426269531,1.761669109668544,,,
9719.0,-22.594242095947266,1.7114609440011257,,,
9735.0,-48.34850692749024,1.5763143668272472,,,
9751.0,-68.40340423583984,1.3740295483214413,,,
9766.0,-79.11263275146484,1.1332975538718728,,,
9782.0,-81.4190673828125,0.8809647708478737,,,
9797.0,-78.37578582763672,0.6335390404198393,,,
9813.0,-72.43061828613281,0.3961586655499178,,,
9829.0,-63.89889144897461,0.1679795707678976,,,
9844.0,-51.73548126220703,-0.0502895684267439,,,
9860.0,-35.250526428222656,-0.2515140591372559,,,
9876.0,-15.74728012084961,-0.4225709292356925,,,
9891.0,3.2838058471679688,-0.5493832730987954,,,
9907.0,17.612762451171875,-0.6232968057394284,,,
9922.0,24.071258544921875,-0.645168726536644,,,
9938.0,22.239276885986328,-0.6252712663118292,,,
9954.0,14.344478607177734,-0.5796660074052146,,,
9969.0,3.869659423828125,-0.5254512715960108,,,
9985.0,-6.010459899902344,-0.4772758331098046,,,
10001.0,-13.18505859375,-0.4460028297187448,,,
10016.0,-16.82672882080078,-0.4385973208253801,,,
10032.0,-16.534770965576172,-0.4575196488108942,,,
10047.0,-11.962268829345703,-0.4987056343572467,,,
10063.0,-3.040973663330078,-0.5490429734388844,,,
10079.0,10.213638305664062,-0.5857638015909874,,,
10094.0,27.53116226196289,-0.580097898951964,,,
10110.0,47.39208984375,-0.5055527001150171,,,
10126.0,66.09410095214844,-0.3482767268236551,,,
10141.0,77.97308349609375,-0.1148972727955428,,,
10157.0,77.201416015625,0.1665061890334185,,,
10172.0,60.61384582519531,0.4538277968074845,,,
10188.0,30.10898971557617,0.7043080689154899,,,
10204.0,-7.492748260498047,0.8883888772332968,,,
10219.0,-42.2005729675293,0.9982261985658578,,,
10235.0,-65.5169677734375,1.0475188571725833,,,
10251.0,-72.63255310058594,1.0632633669372578,,,
10266.0,-63.701805114746094,1.073415018352338,,,
10282.0,-43.09702301025391,1.0957025874749742,,,
10297.0,-17.859310150146484,1.1317400998134934,,,
10313.0,4.209754943847656,1.167971625426307,,,
10329.0,16.531078338623047,1.182200782836143,,,
10344.0,15.066047668457031,1.152580777558882,,,
10360.0,-0.417724609375,1.065461872074205,,,
10376.0,-26.02860641479492,0.9193284871678772,,,
10391.0,-54.35992050170898,0.7237629433802351,,,
10407.0,-76.96315002441406,0.4943334561179201,,,
10422.0,-87.36338806152344,0.2458640878797724,,,
10438.0,-83.39027404785156,-0.0128639307721952,,,
10454.0,-68.09370422363281,-0.2805909908964918,,,
10469.0,-47.27704620361328,-0.5605726134950176,,,
10485.0,-26.732540130615234,-0.8545203458034282,,,
10501.0,-9.66192626953125,-1.1564540858657817,,,
10516.0,3.632247924804688,-1.426551879265013,,,
10532.0,14.325286865234377,-1.6687446761872582,,,
10547.0,23.52569580078125,-1.864893767093513,,,
10563.0,31.423370361328125,-1.976064326451709,,,
10579.0,37.80704116821289,-1.9925829275505724,,,
10594.0,43.45545196533203,-1.9200433162480235,,,
10610.0,50.2116584777832,-1.776736960391481,,,
10626.0,59.88291549682617,-1.5873420358911312,,,
10641.0,72.51213836669922,-1.3757220649067718,,,
10657.0,85.3905029296875,-1.1597060148840364,,,
10672.0,93.31095886230467,-0.949412266576816,,,
10688.0,90.98208618164062,-0.7487983930383264,,,
10704.0,75.59632110595703,-0.5586805129478588,,,
10719.0,49.4102897644043,-0.3791954535464527,,,
10735.0,18.770065307617188,-0.2106012279119956,,,
10751.0,-8.249809265136719,-0.0527299930474406,,,
10766.0,-25.698505401611328,0.0956487122999322,,,
10782.0,-31.982402801513672,0.2364256271971026,,,
10797.0,-29.7213134765625,0.3706105803127902,,,
10813.0,-23.67542266845703,0.4966746227713034,,,
10829.0,-17.769134521484375,0.6101482590353843,,,
10844.0,-13.136669158935549,0.7051338790957842,,,
10860.0,-8.235851287841797,0.7771052776892897,,,
10876.0,-0.9856796264648438,0.8254271024554145,,,
10891.0,9.03484344482422,0.8540939849651124,,,
10907.0,19.39961242675781,0.8702062068356898,,,
10922.0,25.975818634033203,0.880970940968188,,,
10938.0,25.674449920654297,0.8907420577795612,,,
10954.0,17.80465316772461,0.8994294370157117,,,
10969.0,4.502704620361328,0.9027809885830576,,,
10985.0,-10.70439910888672,0.8941630552949679,,,
11001.0,-25.016082763671875,0.8669989344112274,,,
11016.0,-37.18416595458984,0.8170193257563486,,,
11032.0,-46.27399444580078,0.7436818569493308,,,
11047.0,-51.08290863037109,0.650325759981924,,,
11063.0,-49.15556716918945,0.542890455385111,,,
11079.0,-38.81819915771485,0.4274975957957703,,,
11094.0,-21.08028793334961,0.3078093736504486,,,
11110.0,-0.2544441223144531,0.1834369709476938,,,
11126.0,16.436901092529297,0.0503625725636778,,,
11141.0,21.806602478027344,-0.0966437636966695,,,
11157.0,11.712448120117188,-0.2607416913532209,,,
11172.0,-13.23813247680664,-0.4405102220095331,,,
11188.0,-47.48816680908203,-0.6293916646777781,,,
11204.0,-82.68321228027344,-0.817154677707444,,,
11219.0,-110.09806060791016,-0.9924054856007491,,,
11235.0,-122.8385238647461,-1.1448513494572523,,,
11251.0,-117.44094848632812,-1.2664855711660084,,,
11266.0,-94.35968017578124,-1.3516741770779714,,,
11282.0,-57.92049789428711,-1.3967183815243642,,,
11298.0,-15.468772888183594,-1.3995606726912608,,,
11313.0,24.33048248291016,-1.35999106913403,,,
11329.0,53.27592468261719,-1.2802855239114586,,,
11344.0,66.09721374511719,-1.165908241758731,,,
11360.0,61.4505729675293,-1.0258009985394054,,,
11376.0,42.4801025390625,-0.8718301730773704,,,
11391.0,15.788518905639648,-0.7171557348199077,,,
11407.0,-10.521263122558594,-0.5736593994821062,,,
11423.0,-29.12939071655273,-0.4490816006332619,,,
11438.0,-35.44453048706055,-0.3449455361995824,,,
11454.0,-28.413854598999023,-0.2563509670443651,,,
11469.0,-10.715211868286133,-0.1741010966077393,,,
11485.0,12.80577278137207,-0.0885773922413756,,,
11501.0,36.27560424804688,0.0061292468434286,,,
11516.0,54.72121810913086,0.1094992947066344,,,
11532.0,65.55531311035156,0.2142417556289961,,,
11548.0,68.19349670410156,0.3081532888696539,,,
11563.0,63.84449768066406,0.3771651041251165,,,
11579.0,54.68207550048828,0.408495546537157,,,
11594.0,43.39504623413086,0.3933929867933133,,,
11610.0,32.895233154296875,0.3295327267597543,,,
11626.0,26.29155731201172,0.2231324030952757,,,
11641.0,26.366863250732425,0.090227214858035,,,
11657.0,34.68596267700195,-0.0441119426869609,,,
11673.0,50.729774475097656,-0.1497374198695922,,,
11688.0,70.81211853027344,-0.1984837117916594,,,
11704.0,88.98973846435547,-0.1724341064264049,,,
11719.0,98.99536895751952,-0.0701777988025513,,,
11735.0,97.11962127685548,0.0919642532722962,,,
11751.0,83.25281524658203,0.2848387660779097,,,
11766.0,61.51019287109375,0.475781898388062,,,
11782.0,38.04463195800781,0.6384908202729268,,,
11798.0,18.40886306762696,0.759276858782825,,,
11813.0,5.613430023193359,0.83733759690856,,,
11829.0,-0.8300704956054688,0.8796479353379132,,,
11844.0,-3.3136749267578125,0.8936254906490219,,,
11860.0,-4.791507720947266,0.8815750240791509,,,
11876.0,-7.890323638916016,0.8397053357026995,,,
11891.0,-14.15973663330078,0.7619521336929128,,,
11907.0,-23.48705291748047,0.6462849773335427,,,
11923.0,-34.01993560791016,0.4999133010823267,,,
11938.0,-42.547119140625,0.3404166152951198,,,
11954.0,-45.74006652832031,0.1919159566996143,,,
11969.0,-42.26580047607422,0.077858930506383,,,
11985.0,-33.495155334472656,0.0135699836125431,,,
12001.0,-24.160964965820312,0.0016951625655484,,,
12016.0,-19.321128845214844,0.0321763115583122,,,
12032.0,-21.44389533996582,0.0862940015586488,,,
12048.0,-28.59312629699707,0.1427259371289323,,,
12063.0,-35.209625244140625,0.1832005158642032,,,
12079.0,-35.88703155517578,0.1961548197046884,,,
12094.0,-28.613311767578125,0.1781413405602554,,,
12110.0,-16.574935913085938,0.1336897551865725,,,
12126.0,-5.7650146484375,0.0744163772719585,,,
12141.0,-1.4775466918945312,0.0175599809980739,,,
12157.0,-5.202930450439453,-0.0165048403713594,,,
12173.0,-14.44210433959961,-0.0082095167421698,,,
12188.0,-25.16401100158692,0.0561471014283023,,,
12204.0,-34.145687103271484,0.1795428442106903,,,
12219.0,-40.13593673706055,0.3513621006971197,,,
12235.0,-42.87016296386719,0.5478239269657749,,,
12251.0,-42.4571533203125,0.7358905558580097,,,
12266.0,-38.91484451293945,0.879717086287462,,,
12282.0,-33.206932067871094,0.9481365155901168,,,
12298.0,-28.131591796875,0.9217023013299692,,,
12313.0,-26.94089126586914,0.7980494385100595,,,
12329.0,-31.506935119628903,0.5944289581440524,,,
12344.0,-40.09766006469727,0.3462897343337791,,,
12360.0,-47.25188827514648,0.1011853738535541,,,
12376.0,-46.42791366577149,-0.0915419401826215,,,
12391.0,-34.053916931152344,-0.1931013469662621,,,
12407.0,-11.58279800415039,-0.1859559429827667,,,
12423.0,14.887825012207031,-0.0790678872946052,,,
12438.0,37.68395233154297,0.0945563773245633,,,
12454.0,51.15475463867188,0.2874923734456192,,,
12469.0,53.526397705078125,0.451469263394986,,,
12485.0,46.78973007202149,0.550292705457791,,,
12501.0,34.94268035888672,0.5680336680762726,,,
12516.0,22.439342498779297,0.5104013786542594,,,
12532.0,12.748138427734377,0.3997241474587795,,,
12548.0,7.714260101318359,0.2659434627794611,,,
12563.0,6.93524169921875,0.1368826644189032,,,
12579.0,8.36446762084961,0.0307346383452204,,,
12594.0,9.00973129272461,-0.047424104737093,,,
12610.0,6.729022979736328,-0.1047357229297618,,,
12626.0,1.7823810577392578,-0.1562106033635228,,,
12641.0,-3.356212615966797,-0.2186511126516147,,,
12657.0,-4.830698013305664,-0.3047628582005741,,,
12673.0,-0.2512645721435547,-0.4190452140699985,,,
12688.0,9.98550033569336,-0.5564503803972541,,,
12704.0,22.944286346435547,-0.7041060890647575,,,
12719.0,34.281131744384766,-0.8456665532316149,,,
12735.0,40.385780334472656,-0.967090929204912,,,
12751.0,39.18556594848633,-1.0619760896875508,,,
12766.0,29.99478530883789,-1.134324228853179,,,
12782.0,13.63459014892578,-1.197188701424147,,,
12798.0,-7.950542449951172,-1.2671054503534032,,,
12813.0,-30.79452133178711,-1.3561157349379422,,,
12829.0,-49.1029167175293,-1.4645953885304217,,,
12844.0,-57.00947570800781,-1.5781600706544954,,,
12860.0,-50.99240493774414,-1.670400466967977,,,
12876.0,-31.47943878173828,-1.710761118229257,,,
12891.0,-3.1845932006835938,-1.674661505671357,,,
12907.0,26.410409927368164,-1.5519887654133544,,,
12923.0,50.64889526367188,-1.350764707650701,,,
12938.0,65.47489929199219,-1.09475376288644,,,
12954.0,70.35466003417969,-0.8161672405568471,,,
12969.0,67.39816284179688,-0.5464609815562977,,,
12985.0,59.166690826416016,-0.3088034586839343,,,
13001.0,47.79405975341797,-0.1148768281429959,,,
13016.0,34.106346130371094,0.0333906251876363,,,
13032.0,18.13726806640625,0.1388982449601174,,,
13048.0,0.2971649169921875,0.2044661496649976,,,
13063.0,-18.18231964111328,0.2309278121200904,,,
13079.0,-34.408348083496094,0.2192603211176103,,,
13094.0,-44.87409591674805,0.1751577401583785,,,
13110.0,-46.42967224121094,0.1126840113936245,,,
13126.0,-37.827880859375,0.0538918766984816,,,
13141.0,-20.91384506225586,0.023520959149815,,,
13157.0,-0.3658332824707031,0.0407936339431357,,,
13173.0,17.71065902709961,0.1121598013507671,,,
13188.0,27.82128143310547,0.2285317354211644,,,
13204.0,27.436599731445312,0.368371936115675,,,
13219.0,17.701875686645508,0.5052904062243514,,,
13235.0,2.531803131103516,0.6170175509554213,,,
13251.0,-12.693876266479492,0.692410660000307,,,
13266.0,-23.119388580322266,0.734228849975588,,,
13282.0,-26.053386688232425,0.7570062714757141,,,
13298.0,-21.747783660888672,0.7808507042676267,,,
13313.0,-13.211162567138672,0.8231613671486201,,,
13329.0,-5.039791107177734,0.8910152826414216,,,
13344.0,-1.934375762939453,0.9770760898943596,,,
13360.0,-6.3680419921875,1.0609733099119305,,,
13376.0,-17.119245529174805,1.1161331881015224,,,
13391.0,-29.53783798217773,1.1196622379547991,,,
13407.0,-37.91836166381836,1.0612890983945722,,,
13423.0,-37.87798690795898,0.947579869828777,,,
13438.0,-28.87432098388672,0.7997281063993571,,,
13454.0,-14.125892639160156,0.6461298398544264,,,
13469.0,0.9762687683105468,0.5131242942078685,,,
13485.0,11.623992919921877,0.4176339085049879,,,
13501.0,16.232421875,0.3640299419233204,,,
13516.0,15.988523483276367,0.3454174629338591,,,
13532.0,13.480812072753906,0.3478881529566491,,,
13548.0,10.567626953125,0.3557364321632845,,,
13563.0,7.137096405029297,0.3559801936656218,,,
13579.0,2.230438232421875,0.3411941515297698,,,
13594.0,-4.998279571533203,0.310247094974752,,,
13610.0,-13.523517608642578,0.2670212487405639,,,
13626.0,-20.838768005371094,0.2177352933265023,,,
13641.0,-24.01041412353516,0.1680468387459652,,,
13657.0,-21.51143264770508,0.121328433372214,,,
13673.0,-13.504894256591797,0.0790302991631713,,,
13688.0,-1.4833621978759766,0.0428979808303586,,,
13704.0,12.876224517822266,0.0175741387617427,,,
13719.0,28.728984832763672,0.01157428179448,,,
13735.0,45.02017211914063,0.0352620706581377,,,
13751.0,59.589115142822266,0.0960479681259321,,,
13766.0,68.07414245605469,0.1927634884012244,,,
13782.0,64.6303482055664,0.3120409933050552,,,
13798.0,44.74379348754883,0.4289906825465634,,,
13813.0,8.625263214111328,0.5126880736532752,,,
13829.0,-37.13512802124024,0.5348008451240888,,,
13844.0,-80.92491149902344,0.4781573559368831,,,
13860.0,-110.54426574707033,0.3419488621576554,,,
13876.0,-118.27210998535156,0.1416349384967221,,,
13891.0,-103.7603530883789,-0.096172374618675,,,
13907.0,-74.02459716796875,-0.3415921213789484,,,
13923.0,-39.65206527709961,-0.5690293524988043,,,
13938.0,-9.791011810302734,-0.7618890226732115,,,
13954.0,10.957805633544922,-0.9134936844580854,,,
13970.0,22.658689498901367,-1.024886776091277,,,
13985.0,27.85279083251953,-1.1011449222229743,,,
14001.0,28.80688095092773,-1.1478387103948495,,,
14016.0,26.409656524658203,-1.168696468696154,,,
14032.0,20.66768264770508,-1.164857304421528,,,
14048.0,12.405986785888672,-1.1356467724713062,,,
14063.0,3.648540496826172,-1.0805217237867897,,,
14079.0,-2.7141056060791016,-1.0015271698652652,,,
14095.0,-4.713457107543945,-0.9052765593703028,,,
14110.0,-1.9171905517578125,-0.8033525879477744,,,
14126.0,4.256935119628906,-0.7104086668839023,,,
14141.0,11.890396118164062,-0.6401372783450201,,,
14157.0,18.93982315063477,-0.6002937996612558,,,
14173.0,24.195632934570312,-0.588599434846061,,,
14188.0,27.59033966064453,-0.5912581092322701,,,
14204.0,30.397113800048828,-0.5850484605509563,,,
14220.0,35.02725601196289,-0.5428265503972854,,,
14235.0,43.74458312988281,-0.4411879535065281,,,
14251.0,57.97872161865234,-0.268256664546499,,,
14266.0,76.2546615600586,-0.0292416973041974,,,
14282.0,93.5837860107422,0.252331061228008,,,
14298.0,102.8249053955078,0.5388118925163261,,,
14313.0,96.94656372070312,0.7874809325936593,,,
14329.0,72.50174713134766,0.9620050165843168,,,
14345.0,32.581939697265625,1.0425327112961762,,,
14360.0,-13.717206954956056,1.030758930210365,,,
14376.0,-54.74043273925781,0.948041169559065,,,
14391.0,-80.29056549072266,0.8273935242729475,,,
14407.0,-85.77677154541016,0.7026080846236489,,,
14423.0,-73.44711303710938,0.5986430993299696,,,
14438.0,-50.56813049316406,0.5263969430975698,,,
14454.0,-26.359783172607425,0.4827369010305116,,,
14470.0,-8.344402313232422,0.4544656241634875,,,
14485.0,-0.5194549560546875,0.4238737209541614,,,
14501.0,-3.319799423217773,0.3738855024397303,,,
14516.0,-14.391347885131836,0.2919185638685952,,,
14532.0,-30.275863647460938,0.172494867537877,,,
14548.0,-47.14938735961914,0.0188042324071774,,,
14563.0,-61.41913986206055,-0.1570051689773775,,,
14579.0,-69.73700714111328,-0.3354064581091303,,,
14595.0,-69.646240234375,-0.4933026011362547,,,
14610.0,-60.26095581054688,-0.6095570490691679,,,
14626.0,-43.18203353881836,-0.6707757965837882,,,
14641.0,-21.788158416748047,-0.6754672178524803,,,
14657.0,-0.7594985961914062,-0.6351549154318479,,,
14673.0,15.650558471679688,-0.572056538103908,,,
14688.0,24.64551544189453,-0.5139958754925907,,,
14704.0,25.996654510498047,-0.4878364737889502,,,
14720.0,21.73192977905273,-0.5128493931445656,,,
14735.0,15.224212646484377,-0.5953038446679288,,,
14751.0,9.67727279663086,-0.7254445787562877,,,
14766.0,6.926364898681641,-0.8778748959101182,,,
14782.0,6.722915649414063,-1.0159304804035494,,,
14798.0,7.610660552978516,-1.099679935357538,,,
14813.0,8.25894546508789,-1.0958617273280855,,,
14829.0,8.430831909179688,-0.9869398874073132,,,
14845.0,9.60211944580078,-0.7762496166414569,,,
14860.0,13.88479995727539,-0.487280485879011,,,
14876.0,22.155658721923828,-0.1572077825185756,,,
14891.0,33.53863906860352,0.173058577128188,,,
14907.0,45.22089767456055,0.4688062408881224,,,
14923.0,54.13542556762695,0.7082217301471733,,,
14938.0,58.44563293457031,0.8842766866364337,,,
14954.0,57.82754135131836,1.0023039547954549,,,
14970.0,53.84173583984375,1.0752489018685716,,,
14985.0,48.168922424316406,1.118816822271112,,,
15001.0,41.993690490722656,1.147864104557281,,,
15016.0,35.90101623535156,1.1741493860420855,,,
15032.0,29.60155868530273,1.204809322453349,,,
15048.0,22.88375473022461,1.241040692649794,,,
15063.0,15.340435028076172,1.2771943536859074,,,
15079.0,6.157051086425781,1.301143356033282,,,
15095.0,-5.476902008056641,1.2967732736483346,,,
15110.0,-20.096115112304688,1.248617691579052,,,
15126.0,-37.04233551025391,1.14742774631499,,,
15141.0,-53.607696533203125,0.994524409454692,,,
15157.0,-66.03654479980469,0.8027583846931255,,,
15173.0,-70.47647094726562,0.593009515009685,,,
15188.0,-65.40404510498047,0.3870502570364517,,,
15204.0,-52.21268081665039,0.1994615538703543,,,
15220.0,-34.98563766479492,0.0321763382127089,,,
15235.0,-18.46034240722656,-0.1254768215487155,,,
15251.0,-6.032264709472656,-0.2905560965154148,,,
15266.0,1.4764328002929688,-0.4762812204573912,,,
15282.0,5.391803741455078,-0.6821599201269687,,,
15298.0,8.023120880126953,-0.8892287880089195,,,
15313.0,11.530174255371094,-1.063369964874053,,,
15329.0,16.57790756225586,-1.1662573822286209,,,
15345.0,21.929176330566406,-1.1699233840415513,,,
15360.0,25.203277587890625,-1.0689133699758189,,,
15376.0,23.813953399658203,-0.8846153477410298,,,
15391.0,16.36129379272461,-0.6594906591704414,,,
15407.0,3.652378082275391,-0.4432201683517904,,,
15423.0,-10.768829345703123,-0.2762318600399721,,,
15438.0,-21.50968170166016,-0.1770755620657354,,,
15454.0,-24.288028717041016,-0.1382487325983817,,,
15470.0,-17.338748931884766,-0.1313639354095032,,,
15485.0,-2.6570816040039062,-0.1188387222509611,,,
15501.0,14.466720581054688,-0.0672537605724096,,,
15516.0,28.259464263916016,0.0422037872539931,,,
15532.0,34.28715896606445,0.208824162643837,,,
15548.0,30.52975845336914,0.4132406980135442,,,
15563.0,17.331619262695312,0.6227273651086777,,,
15579.0,-3.5930137634277344,0.7990780852828355,,,
15595.0,-29.504711151123047,0.9073960449099284,,,
15610.0,-56.785789489746094,0.9243206270287126,,,
15626.0,-80.66264343261719,0.8441552194517893,,,
15641.0,-95.47395324707033,0.6813095764289415,,,
15657.0,-97.01306915283205,0.4679399720544981,,,
15673.0,-84.08964538574219,0.2468562387779253,,,
15688.0,-59.31354904174805,0.0613048105064508,,,
15704.0,-27.809043884277344,-0.0555718615648645,,,
15720.0,4.334892272949219,-0.0885405398413906,,,
15735.0,31.48015594482422,-0.0431001726142669,,,
15751.0,49.18747329711914,0.0573611564827041,,,
15766.0,54.93043518066406,0.1790097427447314,,,
15782.0,47.89610290527344,0.2871773671979372,,,
15798.0,30.027454376220703,0.3551386218723402,,,
15813.0,6.4985198974609375,0.3694743513261186,,,
15829.0,-15.631919860839844,0.3307550854447247,,,
15845.0,-29.9364013671875,0.2500419466269601,,,
15860.0,-33.29759979248047,0.1431979151697598,,,
15876.0,-26.426517486572266,0.0255465251221647,,,
15891.0,-13.578571319580078,-0.0912320616178048,,,
15907.0,0.4299812316894531,-0.1995231676097003,,,
15923.0,12.37607192993164,-0.2944932864541509,,,
15938.0,21.604007720947266,-0.3726969922600194,,,
15954.0,28.821895599365234,-0.4317423449812397,,,
15970.0,34.522666931152344,-0.4710970249362692,,,
15985.0,38.29263305664063,-0.4931361355823405,,,
16001.0,38.68616485595703,-0.5032633812568148,,,
16016.0,35.013427734375,-0.5084762585707323,,,
16032.0,28.005489349365234,-0.5146915524017334,,,
16048.0,19.507488250732425,-0.5239267086097076,,,
16063.0,11.542930603027344,-0.5326652342545167,,,
16079.0,5.181201934814453,-0.5323748568110295,,,
16095.0,0.7114639282226562,-0.5123750444402986,,,
16110.0,-2.402408599853516,-0.4643098468683826,,,
16126.0,-5.420341491699219,-0.3866486525862785,,,
16141.0,-9.706727981567385,-0.2872587969319514,,,
16157.0,-16.384037017822266,-0.1825150769044635,,,
16173.0,-25.7719955444336,-0.0927196364660486,,,
16188.0,-36.34171295166016,-0.0353746569061937,,,
16204.0,-44.609954833984375,-0.0191763277221674,,,
16220.0,-46.97931289672852,-0.041572639242197,,,
16235.0,-41.66767501831055,-0.0911046053910521,,,
16251.0,-30.42879867553711,-0.1532916193620557,,,
16266.0,-17.87181854248047,-0.2169372040041053,,,
16282.0,-8.815275192260742,-0.2775904456017379,,,
16298.0,-5.530735015869141,-0.3366228470319831,,,
16313.0,-6.049654960632324,-0.3969268236502077,,,
16329.0,-5.607884407043457,-0.4580748318141475,,,
16345.0,-0.1297531127929687,-0.5138610607860857,,,
16360.0,10.700525283813477,-0.5535733632070484,,,
16376.0,23.41297149658203,-0.5661869540876044,,,
16391.0,32.54777908325195,-0.5452155867892122,,,
16407.0,34.43766784667969,-0.4918767803076577,,,
16423.0,29.44481658935547,-0.4153048438192019,,,
16438.0,21.3828125,-0.3299918656284832,,,
16454.0,15.06190299987793,-0.25169135662396,,,
16470.0,13.30214500427246,-0.193345236315768,,,
16485.0,16.23188591003418,-0.1622896940598839,,,
16501.0,21.453311920166016,-0.1593475861642624,,,
16516.0,26.19029426574707,-0.1796898230734932,,,
16532.0,27.620508193969727,-0.2147587198537273,,,
16548.0,23.73183822631836,-0.2542998936383888,,,
16563.0,13.982094764709473,-0.2877832839371588,,,
16579.0,-1.0951855182647705,-0.305119621922883,,,
16595.0,-18.867656707763672,-0.2972297078168408,,,
16610.0,-35.02388000488281,-0.2572330627205682,,,
16626.0,-45.07653045654297,-0.1825543913150832,,,
16641.0,-46.0464973449707,-0.0773371821980494,,,
16657.0,-37.79934310913086,0.0461883954604444,,,
16673.0,-23.31102180480957,0.1687460287819343,,,
16688.0,-7.443346977233887,0.2679752756797033,,,
16704.0,5.820004463195801,0.3245081704983099,,,
16720.0,14.572760581970217,0.3282228820367768,,,
16735.0,19.31333541870117,0.2823570451867502,,,
16751.0,21.9167537689209,0.2037336755437396,,,
16767.0,24.05577087402344,0.1186619640136326,,,
16782.0,26.557785034179688,0.0556314424443754,,,
16798.0,28.923614501953125,0.0371403103529912,,,
16813.0,30.360111236572266,0.0733987101130471,,,
16829.0,30.49202919006348,0.1600029289856701,,,
16845.0,29.55150032043457,0.280183080906584,,,
16860.0,28.16770362854004,0.4105020124288254,,,
16876.0,26.643035888671875,0.5277069567155398,,,
16892.0,24.933210372924805,0.6143356304357452,,,
16907.0,22.966371536254883,0.6616225328804727,,,
16923.0,20.81697463989257,0.6696505942943061,,,
16938.0,19.038509368896484,0.6457438624397126,,,
16954.0,18.93558883666992,0.6022778909250548,,,
16970.0,21.36910629272461,0.5544876114900409,,,
16985.0,26.80551528930664,0.518089048975084,,,
17001.0,34.86334609985352,0.5062825421713905,,,
17017.0,43.979759216308594,0.5262307456607812,,,
17032.0,51.301517486572266,0.5760335676480801,,,
17048.0,53.10563659667969,0.64378967768705,,,
17063.0,46.30353546142578,0.7099334371351208,,,
17079.0,29.75709724426269,0.7526876443181771,,,
17095.0,5.769526958465576,0.7548623856737782,,,
17110.0,-20.77970123291016,0.7092978322353568,,,
17126.0,-44.39596557617188,0.6206124366608113,,,
17142.0,-61.35054016113281,0.5024979840964998,,,
17157.0,-71.39982604980469,0.3718476480530106,,,
17173.0,-76.82081604003906,0.2424852031102635,,,
17188.0,-80.7515640258789,0.1214147957818265,,,
17204.0,-84.24281311035156,0.0092127887825306,,,
17220.0,-85.55069732666016,-0.0959578329682332,,,
17235.0,-81.10311889648438,-0.1931499474935509,,,
17251.0,-68.26547241210938,-0.275382486247113,,,
17267.0,-47.37261962890625,-0.3305139520535218,,,
17282.0,-21.72368812561035,-0.3462407801992282,,,
17298.0,3.2698421478271484,-0.3169194152326636,,,
17313.0,23.19920921325684,-0.2486892483818719,,,
17329.0,35.22791290283203,-0.1599311781463995,,,
17345.0,38.51547622680664,-0.0762329434545511,,,
17360.0,34.07989883422852,-0.021712033518651,,,
17376.0,24.01217269897461,-0.0104081595475109,,,
17392.0,11.820101737976074,-0.0415275813930999,,,
17407.0,1.3611478805541992,-0.1005533981913149,,,
17423.0,-3.93817138671875,-0.1655432413711042,,,
17438.0,-2.4484310150146484,-0.2156892259253909,,,
17454.0,5.135473251342773,-0.238476144240513,,,
17470.0,15.874248504638672,-0.2327414237394157,,,
17485.0,26.009729385375977,-0.2069463481139755,,,
17501.0,32.60832214355469,-0.1739651844834943,,,
17517.0,34.01266860961914,-0.1448617812365411,,,
17532.0,30.48617935180664,-0.1241777982338227,,,
17548.0,23.395038604736328,-0.1084159702850716,,,
17563.0,14.678125381469728,-0.0880968654464975,,,
17579.0,6.125062942504883,-0.0524362248237489,,,
17595.0,-0.9407730102539062,0.0052890215115111,,,
17610.0,-6.051782608032227,0.0839264181567965,,,
17626.0,-9.536935806274414,0.1738746316384722,,,
17642.0,-11.666391372680664,0.260132316145015,,,
17657.0,-12.90936279296875,0.327772851758112,,,
17673.0,-12.882481575012209,0.367522505905253,,,
17688.0,-11.023344993591309,0.3790343337420402,,,
17704.0,-6.455514907836914,0.3704991534746248,,,
17720.0,0.955678939819336,0.3549034239940357,,,
17735.0,10.240571975708008,0.3446767504801105,,,
17751.0,19.70310401916504,0.3469775771283109,,,
17767.0,26.98626708984375,0.3613097222807178,,,
17782.0,30.32502174377441,0.3799852832847016,,,
17798.0,28.486305236816406,0.3908296681825358,,,
17813.0,21.181644439697266,0.3809442569330093,,,
17829.0,9.16016960144043,0.3403540514407351,,,
17845.0,-5.678121566772461,0.2646948212171873,,,
17860.0,-20.590621948242188,0.1564340899620346,,,
17876.0,-32.69872283935547,0.0243786945402045,,,
17892.0,-39.46839141845703,-0.1184958108327532,,,
17907.0,-40.1445541381836,-0.2584473308018816,,,
17923.0,-35.794883728027344,-0.3846942462003012,,,
17938.0,-28.65274810791016,-0.4922996092481411,,,
17954.0,-21.08391571044922,-0.5832031173761085,,,
17970.0,-14.563215255737305,-0.6649738030495671,,,
17985.0,-9.443309783935549,-0.7476340026444853,,,
18001.0,-5.34577751159668,-0.839565968791939,,,
18017.0,-1.818094253540039,-0.9438359671694654,,,
18032.0,1.2430171966552734,-1.0561825034742889,,,
18048.0,3.0996341705322266,-1.1654367392799654,,,
18063.0,3.243337631225586,-1.2563590341052038,,,
18079.0,1.4757041931152344,-1.3139760158864189,,,
18095.0,-2.1196537017822266,-1.3278256355307063,,,
18110.0,-6.78758430480957,-1.2944567260001816,,,
18126.0,-11.534585952758787,-1.2172689503699283,,,
18142.0,-15.205459594726562,-1.104050277060031,,,
18157.0,-17.072654724121094,-0.963698763777888,,,
18173.0,-16.887624740600586,-0.8039133293650091,,,
18188.0,-15.351644515991213,-0.6308808404078549,,,
18204.0,-13.402481079101562,-0.4506323911860159,,,
18220.0,-11.596441268920898,-0.270668855456131,,,
18235.0,-9.553619384765623,-0.1003674002345573,,,
18251.0,-5.717681884765625,0.0504038398537335,,,
18267.0,1.5075645446777344,0.1737987498389826,,,
18282.0,12.620264053344728,0.2662832159758818,,,
18298.0,26.32972526550293,0.3296231138105497,,,
18313.0,39.47255706787109,0.3703842955509581,,,
18329.0,48.39060974121094,0.3985027375476046,,,
18345.0,51.05366516113281,0.4255314939833524,,,
18360.0,48.09527969360352,0.4626598165488401,,,
18376.0,42.69760894775391,0.5182035598169985,,,
18392.0,38.37091064453125,0.5945663658408229,,,
18407.0,36.5108528137207,0.6855830101905109,,,
18423.0,35.21690368652344,0.7759156207805704,,,
18438.0,30.82749557495117,0.8439282416340204,,,
18454.0,20.1599063873291,0.86800704876402,,,
18470.0,3.6453800201416016,0.8343390340366331,,,
18485.0,-14.443580627441406,0.7429373511954477,,,
18501.0,-28.07379150390625,0.609106790629053,,,
18517.0,-32.26746368408203,0.4594978359727318,,,
18532.0,-26.054161071777344,0.3243481560423732,,,
18548.0,-12.699153900146484,0.2290860118402754,,,
18563.0,2.50628662109375,0.1883501052162801,,,
18579.0,15.294408798217772,0.2039012961121967,,,
18595.0,23.86787414550781,0.2659586888731052,,,
18610.0,27.90600204467773,0.3563637577052024,,,
18626.0,27.063098907470703,0.4521289842460263,,,
18642.0,19.84398460388184,0.5288789246647185,,,
18657.0,4.498682022094727,0.5644661207970989,,,
18673.0,-18.3351993560791,0.5429606554303814,,,
18688.0,-44.40296173095703,0.4583950294879668,,,
18704.0,-66.30229187011719,0.3168803165890154,,,
18720.0,-76.94988250732422,0.1357804873763322,,,
18735.0,-73.16897583007812,-0.0603123761403543,,,
18751.0,-57.00810241699219,-0.245627997162181,,,
18767.0,-34.51890182495117,-0.3992122586776122,,,
18782.0,-12.738187789916992,-0.5089302771986588,,,
18798.0,3.215717315673828,-0.5725542413530067,,,
18813.0,10.79429054260254,-0.5962038253941092,,,
18829.0,10.211013793945312,-0.5911343811305031,,,
18845.0,2.8175716400146484,-0.5699608540689656,,,
18860.0,-9.028736114501951,-0.5431640432538924,,,
18876.0,-21.456579208374023,-0.5165364284708868,,,
18892.0,-30.08372688293457,-0.4901722234425735,,,
18907.0,-30.931135177612305,-0.4594418305261648,,,
18923.0,-22.72395133972168,-0.4178508727758374,,,
18938.0,-7.786602020263672,-0.3608445894755887,,,
18954.0,8.506372451782227,-0.2889535080782232,,,
18970.0,20.31072998046875,-0.2087294835779934,,,
18985.0,24.53853416442871,-0.1308429804483019,,,
19001.0,21.52135467529297,-0.0660693675350679,,,
19017.0,14.787822723388672,-0.0209299531347046,,,
19032.0,8.534950256347656,0.0050962814719872,,,
19048.0,5.647359848022461,0.0196416100847683,,,
19063.0,6.831638336181641,0.0348598474194419,,,
19079.0,11.03766632080078,0.0632615831940606,,,
19095.0,16.64970588684082,0.1135047098779232,,,
19110.0,22.07745361328125,0.1875368386597047,,,
19126.0,25.892269134521484,0.2799890524668319,,,
19142.0,26.611515045166016,0.3800439587734269,,,
19157.0,23.143495559692383,0.4752248699960197,,,
19173.0,15.934928894042969,0.5557979783016306,,,
19188.0,7.122018814086914,0.6180448724008473,,,
19204.0,0.1019229888916015,0.6649229992715148,,,
19220.0,-1.875204086303711,0.7037105019957166,,,
19235.0,2.463228225708008,0.7417358798844425,,,
19251.0,11.659334182739258,0.7823982802321688,,,
19267.0,22.311786651611328,0.8236183314636139,,,
19282.0,31.002227783203125,0.8594861943065324,,,
19298.0,36.12716674804688,0.8839280591849129,,,
19313.0,38.012977600097656,0.8939254162950898,,,
19329.0,38.3795166015625,0.8901211737709479,,,
19345.0,38.04214859008789,0.8744629208274891,,,
19360.0,35.97602844238281,0.8467186303311798,,,
19376.0,30.03801345825196,0.8027177861500016,,,
19392.0,18.6170654296875,0.7361610563370378,,,
19407.0,2.16042423248291,0.6433175730963244,,,
19423.0,-15.99902629852295,0.5275567439708367,,,
19439.0,-31.278717041015625,0.4001864706459259,,,
19454.0,-40.94295501708984,0.2760700501804434,,,
19470.0,-45.88967514038086,0.1658485282683347,,,
19485.0,-49.99164581298828,0.0691282706013779,,,
19501.0,-57.803131103515625,-0.02707537214454,,,
19517.0,-71.17296600341797,-0.1431521127998011,,,
19532.0,-87.27613067626953,-0.2973486231963045,,,
19548.0,-100.1094741821289,-0.4967508816229496,,,
19564.0,-103.50132751464844,-0.7332867852166377,,,
19579.0,-94.32144165039062,-0.9862540505957368,,,
19595.0,-74.86209106445312,-1.2292903803874522,,,
19610.0,-51.097415924072266,-1.4377606990062148,,,
19626.0,-29.3643798828125,-1.5932377135978235,,,
19642.0,-13.94944190979004,-1.6842689981494892,,,
19657.0,-5.472823143005371,-1.7050457034508175,,,
19673.0,-1.3728156089782717,-1.6543476092565086,,,
19689.0,1.842005968093872,-1.5360387798744757,,,
19704.0,6.937465190887451,-1.3605434981875226,,,
19720.0,15.105055809020996,-1.1455918811389236,,,
19735.0,25.599308013916016,-0.9147861025858584,,,
19751.0,36.47198867797852,-0.693790510160381,,,
19767.0,44.657508850097656,-0.5052033531525577,,,
19782.0,47.545780181884766,-0.3637019117382399,,,
19798.0,43.60004425048828,-0.2728386661333065,,,
19814.0,33.81049728393555,-0.2243337310710649,,,
19829.0,21.68508529663086,-0.2002025169228272,,,
19845.0,11.776905059814451,-0.1775484947664994,,,
19860.0,7.946045875549316,-0.1351433408377936,,,
19876.0,11.093881607055664,-0.0600764009168161,,,
19892.0,19.295913696289062,0.0477372634397098,,,
19907.0,28.61329841613769,0.1749964457300018,,,
19923.0,35.002193450927734,0.2988312313309713,,,
19939.0,35.675106048583984,0.3936915579015396,,,
19954.0,29.184654235839844,0.4388347802967224,,,
19970.0,15.82355499267578,0.4239454432937866,,,
19985.0,-2.499040603637696,0.3514522099910396,,,
20001.0,-22.010883331298828,0.2354471040623455,,,
20017.0,-37.46238327026367,0.0980527126865645,,,
20032.0,-43.265567779541016,-0.0355895905439277,,,
20048.0,-35.897979736328125,-0.1425486628256383,,,
20064.0,-15.97331428527832,-0.2064061289283826,,,
20079.0,11.885931015014648,-0.2195281541530984,,,
20095.0,40.61708831787109,-0.1826012942258229,,,
20110.0,64.02450561523438,-0.1017145747448967,,,
20126.0,79.158935546875,0.0154629941023135,,,
20142.0,86.829833984375,0.1621322725067566,,,
20157.0,89.61216735839844,0.3317368258062471,,,
20173.0,89.0003433227539,0.5144259970978726,,,
20189.0,83.84368896484375,0.6929478465086064,,,
20204.0,70.72080993652344,0.8413321919978136,,,
20220.0,46.800907135009766,0.9286813652806746,,,
20235.0,12.780559539794922,0.927642359072281,,,
20251.0,-26.02681541442871,0.8242260470823812,,,
20267.0,-61.28369903564453,0.624355335894368,,,
20282.0,-84.36279296875,0.3537531854782709,,,
20298.0,-90.24397277832033,0.0509153541848721,,,
20314.0,-79.44810485839844,-0.2437990856223453,,,
20329.0,-57.33120727539063,-0.4983064312758498,,,
20345.0,-32.03791427612305,-0.6943568495828072,,,
20360.0,-10.851482391357422,-0.8273452501392974,,,
20376.0,2.222054481506348,-0.9020066117777744,,,
20392.0,7.372867584228516,-0.9270307595292772,,,
20407.0,7.402585983276367,-0.9111069918252804,,,
20423.0,6.280826568603516,-0.86117112748801,,,
20439.0,6.685206413269043,-0.7820440934991812,,,
20454.0,9.205631256103516,-0.6762648737812029,,,
20470.0,13.061269760131836,-0.54375524631171,,,
20485.0,16.574108123779297,-0.3820837423608204,,,
20501.0,18.446664810180664,-0.1884101317752177,,,
20517.0,18.00351333618164,0.0367387120423044,,,
20532.0,14.755484580993652,0.2852919616976864,,,
20548.0,8.670130729675293,0.539525681439115,,,
20564.0,-0.0362820625305175,0.7740631846090036,,,
20579.0,-10.67071533203125,0.9621686548275744,,,
20595.0,-21.89743423461914,1.08422958967737,,,
20610.0,-31.181900024414062,1.1349309257769031,,,
20626.0,-36.31523513793945,1.1259311920109671,,,
20642.0,-35.1927490234375,1.082670828998462,,,
20657.0,-26.70556640625,1.0363051120389777,,,
20673.0,-11.552450180053713,1.0135658230317783,,,
20689.0,8.063730239868164,1.0279811076660623,,,
20704.0,27.862340927124023,1.0753114713449408,,,
20720.0,42.35615921020508,1.1346831317727957,,,
20735.0,46.27036666870117,1.1751784600342503,,,
20751.0,36.41127014160156,1.1659634333080533,,,
20767.0,13.520574569702148,1.0867804397678718,,,
20782.0,-17.148792266845703,0.9352581350852892,,,
20798.0,-47.12931442260742,0.7283392174677477,,,
20814.0,-67.85201263427734,0.4971392745855791,,,
20829.0,-73.33390808105469,0.277058270986272,,,
20845.0,-62.92738342285156,0.0968956302250795,,,
20860.0,-40.74913024902344,-0.0288694142890668,,,
20876.0,-14.29269027709961,-0.101832185544372,,,
20892.0,9.460017204284668,-0.1351763040334515,,,
20907.0,26.02804374694824,-0.1452127729836479,,,
20923.0,34.82284927368164,-0.142695298717668,,,
20939.0,38.09514617919922,-0.1275860443806553,,,
20954.0,39.0457763671875,-0.0894809826879784,,,
20970.0,40.09603500366211,-0.0136751279757485,,,
20985.0,41.87537384033203,0.1093811825764734,,,
21001.0,42.84077453613281,0.2750066178345465,,,
21017.0,40.012325286865234,0.4596218260107812,,,
21032.0,30.06671524047852,0.6232201210846122,,,
21048.0,10.826985359191896,0.7190588420762528,,,
21064.0,-16.73208999633789,0.7075404608449574,,,
21079.0,-47.72077178955078,0.5690564455065491,,,
21095.0,-74.66818237304688,0.3105509755904101,,,
21110.0,-89.77696990966797,-0.0369429842983774,,,
21126.0,-88.70053100585938,-0.4285558964606605,,,
21142.0,-72.53953552246094,-0.8188999599521658,,,
21157.0,-47.6601448059082,-1.172647404174328,,,
21173.0,-22.71388435363769,-1.468504066951252,,,
21189.0,-4.561830520629883,-1.696558562914695,,,
21204.0,4.051315307617188,-1.852476727284184,,,
21220.0,5.032320022583008,-1.9331249523630676,,,
21235.0,2.421699523925781,-1.9364297048341783,,,
21251.0,-0.5444698333740234,-1.8649138388067,,,
21267.0,-2.3655881881713867,-1.7296368909295736,,,
21282.0,-3.2023797035217285,-1.5509220885606567,,,
21298.0,-2.82845139503479,-1.3543825084591854,,,
21314.0,0.2139732837677002,-1.1638611878528564,,,
21329.0,7.788754463195801,-0.9949178878414484,,,
21345.0,19.820646286010746,-0.8521871551073945,,,
21360.0,34.00581359863281,-0.7316260115512336,,,
21376.0,45.91773986816406,-0.6259276729092883,,,
21392.0,51.36553192138672,-0.529896308716968,,,
21407.0,48.82426834106445,-0.4431058864564701,,,
21423.0,40.09760665893555,-0.3691311192843089,,,
21439.0,29.417377471923828,-0.312652700118956,,,
21454.0,21.221323013305664,-0.2765712973977812,,,
21470.0,17.343734741210938,-0.2606085692959107,,,
21485.0,17.068490982055664,-0.261439331915713,,,
21501.0,17.68338966369629,-0.2733242136435823,,,
21517.0,16.969905853271484,-0.2882327143268059,,,
21532.0,15.079835891723633,-0.2954145352874624,,,
21548.0,14.28708267211914,-0.2814283494215013,,,
21564.0,17.60733413696289,-0.2318619052769385,,,
21579.0,26.273902893066406,-0.1350946989732346,,,
21595.0,38.61705017089844,0.0129902261432532,,,
21610.0,50.633880615234375,0.2054647180634108,,,
21626.0,58.14167785644531,0.4239761119901433,,,
21642.0,59.02047348022461,0.6422456542834185,,,
21657.0,54.08245086669922,0.832446274412992,,,
21673.0,46.30856323242188,0.9722347675760497,,,
21689.0,39.228797912597656,1.0500508554605403,,,
21704.0,34.246177673339844,1.0671447099891909,,,
21720.0,29.920392990112305,1.0361001526209577,,,
21735.0,22.97273826599121,0.9767244735683004,,,
21751.0,10.485336303710938,0.9107020133641937,,,
21767.0,-7.924905776977539,0.8563867944431411,,,
21782.0,-29.44401359558105,0.824805059410751,,,
21798.0,-49.18629455566406,0.817582491919447,,,
21814.0,-62.3763427734375,0.827155981043118,,,
21829.0,-66.30386352539062,0.8392096331182562,,,
21845.0,-61.88370132446289,0.8367603109290834,,,
21860.0,-52.649322509765625,0.8048200754606345,,,
21876.0,-43.15812683105469,0.7343017294213628,,,
21892.0,-37.02265930175781,0.6239998983901068,,,
21907.0,-35.121726989746094,0.4800947345583893,,,
21923.0,-35.8152961730957,0.3135039929356296,,,
21939.0,-36.0864372253418,0.1362341711083598,,,
21954.0,-33.51515197753906,-0.041686426755832,,,
21970.0,-27.76505279541016,-0.2133160946122125,,,
21985.0,-20.19618225097656,-0.3734514542902372,,,
22001.0,-12.974950790405272,-0.5155991118509149,,,
22017.0,-7.278615951538086,-0.629142551110912,,,
22032.0,-3.1919565200805664,-0.6988518859796454,,,
22048.0,-0.0734977722167968,-0.7079788011230399,,,
22064.0,2.941303253173828,-0.644357627597035,,,
22079.0,5.757246494293213,-0.5070677856861986,,,
22095.0,7.663155555725098,-0.3103750046229647,,,
22110.0,8.024785995483398,-0.0824959414996216,,,
22126.0,6.378836631774902,0.1410373342773729,,,
22142.0,3.0854034423828125,0.3271021028544314,,,
22157.0,-0.9767704010009766,0.454002922430446,,,
22173.0,-4.945528030395508,0.516357407129123,,,
22189.0,-8.207548141479492,0.5244108691884263,,,
22204.0,-10.061108589172363,0.498801950267016,,,
22220.0,-9.924638748168944,0.4634157875858558,,,
22236.0,-7.291739463806152,0.4390328918405007,,,
22251.0,-1.9320640563964844,0.4393017346270966,,,
22267.0,5.452089309692383,0.4691101048271973,,,
22282.0,13.7200927734375,0.5246412116385755,,,
22298.0,21.035682678222656,0.5945380000033793,,,
22314.0,25.666810989379883,0.662164648600915,,,
22329.0,26.66827774047852,0.7091768048654598,,,
22345.0,23.729511260986328,0.7201146131551832,,,
22361.0,17.401294708251953,0.6868397338542288,,,
22376.0,8.829736709594727,0.6111013087483794,,,
22392.0,-0.415440559387207,0.5039182367889612,,,
22407.0,-8.48590087890625,0.3817621895115743,,,
22423.0,-14.022397994995115,0.2610386129195218,,,
22439.0,-16.402240753173828,0.1532064876825675,,,
22454.0,-15.996696472167969,0.0625319884876687,,,
22470.0,-14.189659118652344,-0.012886097324948,,,
22486.0,-12.31503677368164,-0.0777917828974612,,,
22501.0,-11.29255199432373,-0.136118478212789,,,
22517.0,-10.99523639678955,-0.1888992166552216,,,
22532.0,-9.987573623657228,-0.2346388778847848,,,
22548.0,-6.300718307495117,-0.2717416651168656,,,
22564.0,1.1668052673339844,-0.3016217076860496,,,
22579.0,11.095155715942385,-0.3308622641900716,,,
22595.0,19.65241432189941,-0.3712150432748369,,,
22611.0,21.767457962036133,-0.4370773350654578,,,
22626.0,13.92953109741211,-0.5410199630394088,,,
22642.0,-3.5094518661499023,-0.6886917049894252,,,
22657.0,-25.35644721984864,-0.8748004452779483,,,
22673.0,-42.91883850097656,-1.0817348172045564,,,
22689.0,-48.18315505981445,-1.2817126865511743,,,
22704.0,-37.28932189941406,-1.4422737677911222,,,
22720.0,-12.763092041015623,-1.5338027517698247,,,
22736.0,17.832950592041016,-1.5369737045271463,,,
22751.0,44.85010528564453,-1.4478550224855058,,,
22767.0,60.51388549804688,-1.279007519015376,,,
22782.0,61.95696258544922,-1.0560905888658942,,,
22798.0,51.27191925048828,-0.8108936544377292,,,
22814.0,34.300106048583984,-0.5728760009210956,,,
22829.0,17.71402931213379,-0.3618403376217984,,,
22845.0,6.450475692749023,-0.1840813111263838,,,
22861.0,2.97810173034668,-0.033271073289814,,,
22876.0,6.6358489990234375,0.1042568896778839,,,
22892.0,14.423175811767578,0.2417933203915941,,,
22907.0,22.16911697387696,0.3851136609646432,,,
22923.0,25.3759994506836,0.5288363188263339,,,
22939.0,20.94766616821289,0.6578503576158699,,,
22954.0,8.476073265075684,0.7532099715961776,,,
22970.0,-9.59809684753418,0.7998597441601506,,,
22986.0,-28.2305908203125,0.7927018042783951,,,
23001.0,-41.968780517578125,0.738350298854947,,,
23017.0,-47.89909362792969,0.6520377512493215,,,
23032.0,-46.31559753417969,0.5514064148199255,,,
23048.0,-40.36477279663086,0.4501492276246507,,,
23064.0,-34.2659797668457,0.3541442627766882,,,
23079.0,-31.115253448486328,0.2612526240870935,,,
23095.0,-32.25225830078125,0.1642692484362631,,,
23111.0,-37.42928314208984,0.0554615548790984,,,
23126.0,-45.14148712158203,-0.0690437980315088,,,
23142.0,-53.15262985229492,-0.2063531053645417,,,
23157.0,-58.77691650390625,-0.3461424801014826,,,
23173.0,-58.94340133666992,-0.4724982636106157,,,
23189.0,-51.06985855102539,-0.567969014669413,,,
23204.0,-34.38165664672852,-0.6188123080675969,,,
23220.0,-11.283544540405272,-0.6196893800528007,,,
23236.0,13.267309188842772,-0.5758186798568173,,,
23251.0,33.456756591796875,-0.501297977211377,,,
23267.0,45.46928405761719,-0.4138895827150837,,,
23282.0,49.55955505371094,-0.3283240570469035,,,
23298.0,49.429664611816406,-0.2511045560057576,,,
23314.0,49.643463134765625,-0.1792358667852727,,,
23329.0,52.833927154541016,-0.1034525500484227,,,
23345.0,58.05582427978516,-0.0143454003329961,,,
23361.0,61.83780288696289,0.0915680951839591,,,
23376.0,60.03437042236328,0.2086653870426538,,,
23392.0,50.26991653442383,0.3233351634153882,,,
23407.0,33.263755798339844,0.41881777210862,,,
23423.0,12.437994956970217,0.4816074058016013,,,
23439.0,-7.620031356811523,0.5066685510985081,,,
23454.0,-22.403032302856445,0.4992748987917284,,,
23470.0,-29.42054748535156,0.4726782364150414,,,
23486.0,-28.77100372314453,0.442510888046921,,,
23501.0,-22.7529411315918,0.42020668979319,,,
23517.0,-15.274978637695312,0.4082769656932166,,,
23532.0,-9.56765079498291,0.3997202905614717,,,
23548.0,-7.533141613006592,0.3822494741308688,,,
23564.0,-8.799482345581055,0.3458743140413507,,,
23579.0,-10.693337440490724,0.2905362535452936,,,
23595.0,-10.046966552734377,0.2298989028264643,,,
23611.0,-4.343502044677734,0.1886280647608749,,,
23626.0,6.270172119140625,0.1932963378006565,,,
23642.0,18.78818893432617,0.2602625004534,,,
23657.0,28.2352294921875,0.385887500164856,,,
23673.0,29.998329162597656,0.5440166065853551,,,
23689.0,22.19344711303711,0.6927000352573098,,,
23704.0,7.123402118682861,0.787938009055963,,,
23720.0,-10.051976203918455,0.7989010547481312,,,
23736.0,-23.27743911743164,0.7183248904177535,,,
23751.0,-28.3057918548584,0.5640053649950475,,,
23767.0,-25.166542053222656,0.3713441403583313,,,
23782.0,-17.170795440673828,0.1806383161488089,,,
23798.0,-9.066658020019531,0.024465226681854,,,
23814.0,-4.175683975219727,-0.0804463145731095,,,
23829.0,-2.928913116455078,-0.1351267198926391,,,
23845.0,-3.525610446929932,-0.1550177733483853,,,
23861.0,-3.992178916931152,-0.1637182238336332,,,
23876.0,-4.426328659057617,-0.1860253495943971,,,
23892.0,-7.288076400756836,-0.2415612982142531,,,
23907.0,-15.559886932373049,-0.3396280635567795,,,
23923.0,-29.56229019165039,-0.4759987844540635,,,
23939.0,-45.9209213256836,-0.6326936445800515,,,
23954.0,-58.11726379394531,-0.7815816198831599,,,
23970.0,-60.02421569824219,-0.8914891413782857,,,
23986.0,-48.84604644775391,-0.9368508304353566,,,
24001.0,-26.831451416015625,-0.9048642203213608,,,
24017.0,-0.06353759765625,-0.7984578643014572,,,
24032.0,24.537872314453125,-0.6341085552079113,,,
24048.0,41.85834503173828,-0.435714271495155,,,
24064.0,49.77544784545898,-0.2271780074672813,,,
24079.0,48.955078125,-0.0264546465329647,,,
24095.0,41.34659194946289,0.1572275041440611,,,
24111.0,29.3264389038086,0.3226887926055145,,,
24126.0,15.510427474975586,0.4735127685113607,,,
24142.0,2.7764968872070312,0.6135860404695888,,,
24157.0,-6.54952335357666,0.7430541052314623,,,
24173.0,-11.20849609375,0.8561552179303145,,,
24189.0,-11.856781005859377,0.9419150089028528,,,
24204.0,-10.3948335647583,0.9877245763121963,,,
24220.0,-8.82187271118164,0.9845354939347074,,,
24236.0,-8.532873153686523,0.931369397553402,,,
24251.0,-8.912687301635742,0.8367826500678999,,,
24267.0,-8.539151191711426,0.7161619495198738,,,
24282.0,-5.96635103225708,0.5857828530186344,,,
24298.0,-1.2371211051940918,0.4563401197766966,,,
24314.0,3.618125915527344,0.3290889780669966,,,
24329.0,5.708090782165527,0.1964997477342962,,,
24345.0,2.28721570968628,0.0470878695819653,,,
24361.0,-7.708635330200195,-0.1279327592376825,,,
24376.0,-22.93770980834961,-0.3292724131456833,,,
24392.0,-40.60414123535156,-0.5477687810845364,,,
24407.0,-56.83116149902344,-0.7666941824958078,,,
24423.0,-68.0835189819336,-0.9668912223813804,,,
24439.0,-71.93989562988281,-1.1324560399191237,,,
24454.0,-67.50299072265625,-1.254769995359524,,,
24470.0,-56.13645553588867,-1.333622678611596,,,
24486.0,-40.60938262939453,-1.37545679483431,,,
24501.0,-24.49385070800781,-1.3898595478630866,,,
24517.0,-10.941320419311523,-1.3859441965758057,,,
24532.0,-1.7747268676757812,-1.370072585641662,,,
24548.0,3.276397705078125,-1.345583797380979,,,
24564.0,5.787263870239258,-1.3141490153421145,,,
24579.0,8.128411293029785,-1.2775260076321333,,,
24595.0,12.572568893432615,-1.2382643935800972,,,
24611.0,20.253774642944336,-1.1985035861192468,,,
24626.0,31.13762092590332,-1.1572054909954232,,,
24642.0,44.44861602783203,-1.107391310747017,,,
24657.0,59.05358123779297,-1.0354768047082683,,,
24673.0,74.19631958007812,-0.924141106147593,,,
24689.0,89.0781021118164,-0.7584471897305661,,,
24704.0,101.97642517089844,-0.5329628784627782,,,
24720.0,110.86129760742188,-0.2565358575802982,,,
24736.0,112.95709228515624,0.0480473737072943,,,
24751.0,106.7941665649414,0.3501173481848716,,,
24767.0,93.25700378417967,0.6207511755610147,,,
24782.0,75.71420288085938,0.8419935859550726,,,
24798.0,59.287330627441406,1.0117989213163556,,,
24814.0,48.73429107666016,1.1428560901708478,,,
24829.0,46.49322509765625,1.2562817282846632,,,
24845.0,51.65123748779297,1.3732376470672916,,,
24861.0,60.28435516357422,1.5078388231746993,,,
24876.0,66.98260498046875,1.6633826614439855,,,
24892.0,66.27740478515625,1.8320182987776752,,,
24908.0,54.20336151123047,1.9967113344890308,,,
24923.0,29.435365676879883,2.134287365885465,,,
24939.0,-5.9272003173828125,2.219049388963298,,,
24954.0,-47.00688552856445,2.227052905555478,,,
24970.0,-87.20765686035156,2.1409547768140573,,,
24986.0,-119.49562072753906,1.954561018085946,,,
25001.0,-138.5725555419922,1.713442390255104,,,
25017.0,-142.66665649414062,1.4144074639701865,,,
25033.0,-133.55416870117188,1.0583781828236298,,,
25048.0,-115.60433197021484,0.6613024504856437,,,
25064.0,-93.876220703125,0.2912632748399618,,,
25079.0,-72.28402709960938,-0.0249677010046214,,,
25095.0,-52.86480331420898,-0.269131515682014,,,
25111.0,-35.613853454589844,-0.4326814220570626,,,
25126.0,-19.647533416748047,-0.5177853997485387,,,
25142.0,-5.297455787658691,-0.5382687909821741,,,
25158.0,4.982184410095215,-0.5194255092124903,,,
25173.0,6.951631546020508,-0.4950707832446534,,,
25189.0,-3.559520721435547,-0.5009716776813993,,,
25204.0,-27.52531814575196,-0.5656696990397335,,,
25220.0,-60.05055618286133,-0.7016671262868002,,,
25236.0,-91.2244110107422,-0.9006952871925452,,,
25251.0,-109.42951202392578,-1.1355861869709076,,,
25267.0,-106.78958129882812,-1.3685095610228986,,,
25283.0,-83.12451934814453,-1.5624031095640216,,,
25298.0,-46.14647674560547,-1.690932925009282,,,
25314.0,-7.24620246887207,-1.743138761606155,,,
25329.0,23.542282104492188,-1.721604343907858,,,
25345.0,42.04653549194336,-1.6360636405816522,,,
25361.0,49.97401809692383,-1.4961911446455414,,,
25376.0,52.6778678894043,-1.3071175418410903,,,
25392.0,55.56122970581055,-1.0693396804866406,,,
25408.0,61.60943222045898,-0.7823481482120691,,,
25423.0,71.02849578857422,-0.4496907275885065,,,
25439.0,82.11888122558594,-0.0829040082501034,,,
25454.0,92.09837341308594,0.297425035392678,,,
25470.0,97.53550720214844,0.6639071201420359,,,
25486.0,95.13485717773438,0.987188630224452,,,
25501.0,82.71293640136719,1.2419413573928375,,,
25517.0,60.68967056274414,1.412324809169767,,,
25533.0,33.04222869873047,1.495427997836116,,,
25548.0,5.971263885498047,1.5017581286252704,,,
25564.0,-13.960182189941406,1.452658021465138,,,
25579.0,-22.379638671875,1.3753539824992618,,,
25595.0,-18.183576583862305,1.296870823331558,,,
25611.0,-3.1365909576416016,1.2381589798268495,,,
25626.0,19.038116455078125,1.2095750567057733,,,
25642.0,43.38394546508789,1.2085898025239796,,,
25658.0,64.719970703125,1.220379064202893,,,
25673.0,78.14544677734375,1.221621408715802,,,
25689.0,79.97501373291016,1.187110255545348,,,
25704.0,69.35185241699219,1.0976744313970934,,,
25720.0,49.20553970336914,0.9468645291736688,,,
25736.0,25.434307098388672,0.7436753946687223,,,
25751.0,4.370908737182617,0.5097389571269941,,,
25767.0,-9.653095245361328,0.2716561419835447,,,
25783.0,-16.008699417114258,0.0513859109504508,,,
25798.0,-17.126976013183594,-0.1413576833776987,,,
25814.0,-16.573951721191406,-0.3115546089801749,,,
25829.0,-17.292991638183594,-0.4752762696131191,,,
25845.0,-19.93842315673828,-0.6516638863545973,,,
25861.0,-24.210229873657227,-0.8537299475260051,,,
25876.0,-29.127819061279297,-1.0813489210592722,,,
25892.0,-34.079872131347656,-1.3187005102797384,,,
25908.0,-38.68876266479492,-1.5368159636197811,,,
25923.0,-41.82456207275391,-1.700395454031304,,,
25939.0,-42.10651016235352,-1.7769981881849937,,,
25954.0,-38.511940002441406,-1.7460935613028443,,,
25970.0,-31.31765937805176,-1.6053524811912292,,,
25986.0,-22.827293395996094,-1.3721244931290368,,,
26001.0,-16.172870635986328,-1.1172991417465072,,,
26017.0,-13.882331848144531,-0.8568425100193866,,,
26033.0,-16.45520782470703,-0.5985857291272719,,,
26048.0,-21.80859375,-0.3511125956549017,,,
26064.0,-26.884185791015625,-0.1634036099375703,,,
26079.0,-29.261430740356445,-0.0372072776008519,,,
26095.0,-28.392230987548828,0.0333977361535756,,,
26111.0,-25.23780059814453,0.057824635281539,,,
26126.0,-21.10675430297852,0.0474221601707694,,,
26142.0,-16.509830474853516,0.0168352828711868,,,
26158.0,-11.211013793945312,-0.013713549433273,,,
26173.0,-4.691745758056641,-0.0182847903085472,,,
26189.0,3.075451374053955,0.0306387601973372,,,
26204.0,10.828210830688477,0.1541337354408127,,,
26220.0,16.7730655670166,0.3580954143657273,,,
26236.0,19.630088806152344,0.6282225139933851,,,
26251.0,19.233917236328125,0.932022064732293,,,
26267.0,17.080005645751953,1.227919871140264,,,
26283.0,15.567506790161133,1.4779566347957518,,,
26298.0,16.612079620361328,1.6585771902326047,,,
26314.0,20.76544570922852,1.764872927618368,,,
26329.0,26.46610450744629,1.8069094155305307,,,
26345.0,30.7574405670166,1.8006646996399769,,,
26361.0,30.170440673828125,1.7584962457308406,,,
26376.0,22.584659576416016,1.683753487213774,,,
26392.0,8.793815612792969,1.5715487812684563,,,
26408.0,-7.640087127685547,1.4144223309834536,,,
26423.0,-21.64272689819336,1.209481704083588,,,
26439.0,-29.01471710205078,0.963463814617086,,,
26454.0,-28.185043334960938,0.6937002331804154,,,
26470.0,-20.73062515258789,0.4250249224592829,,,
26486.0,-10.664419174194336,0.1841618084831366,,,
26501.0,-2.23435926437378,-0.0063825802700318,,,
26517.0,1.9303946495056152,-0.1332181440747231,,,
26533.0,1.1814117431640625,-0.1947265022227395,,,
26548.0,-2.958459854125977,-0.2011146094195214,,,
26564.0,-8.553544998168945,-0.1720895203705689,,,
26579.0,-13.541078567504885,-0.1328401013067724,,,
26595.0,-16.560415267944336,-0.1092819172364746,,,
26611.0,-17.112003326416016,-0.1235052039111354,,,
26626.0,-15.729434967041016,-0.1900901199332209,,,
26642.0,-13.524042129516602,-0.313614142435056,,,
26658.0,-12.22469711303711,-0.4875016118993481,,,
26673.0,-12.84748649597168,-0.694417283090574,,,
26689.0,-15.180822372436523,-0.9085054479444618,,,
26704.0,-17.66564178466797,-1.0996382287361477,,,
26720.0,-17.204486846923828,-1.2393201569058727,,,
26736.0,-11.124334335327148,-1.30715535997245,,,
26751.0,1.335078239440918,-1.2961895634809042,,,
26767.0,17.596675872802734,-1.2153549545753428,,,
26783.0,32.20024871826172,-1.0878316716945449,,,
26798.0,38.51924896240234,-0.9452877974676058,,,
26814.0,32.22867202758789,-0.8193399611430733,,,
26829.0,13.812822341918944,-0.7327207401180057,,,
26845.0,-11.07723617553711,-0.6930584548916238,,,
26861.0,-33.80546188354492,-0.6915412327249632,,,
26876.0,-46.744815826416016,-0.7070910784403646,,,
26892.0,-46.59946823120117,-0.7145429941223307,,,
26908.0,-35.216033935546875,-0.6936086543369492,,,
26923.0,-18.08867835998535,-0.6349884131225072,,,
26939.0,-1.2273445129394531,-0.5412522065318733,,,
26954.0,11.487545013427734,-0.4225825282357566,,,
26970.0,19.69994163513184,-0.2899804645225291,,,
26986.0,25.880502700805664,-0.1497368331134618,,,
27001.0,32.59862518310547,-0.0021246579700243,,,
27017.0,40.63176727294922,0.1552461685834291,,,
27033.0,47.588504791259766,0.3217698937964694,,,
27048.0,49.2823486328125,0.4896797590784048,,,
27064.0,42.23630905151367,0.644345798730642,,,
27079.0,26.0837516784668,0.76933320710483,,,
27095.0,4.571229934692383,0.8535754834676406,,,
27111.0,-15.269058227539062,0.8965911795412895,,,
27126.0,-26.21061134338379,0.9086762685469226,,,
27142.0,-24.756744384765625,0.9058737886318836,,,
27158.0,-12.89517593383789,0.9025288230011728,,,
27173.0,2.677065849304199,0.9055385787627316,,,
27189.0,14.448637962341309,0.913211249188953,,,
27204.0,17.89525604248047,0.9187277076561434,,,
27220.0,13.790611267089844,0.9154226792806536,,,
27236.0,6.644268035888672,0.9002316359412157,,,
27251.0,1.2416725158691406,0.8732041206278349,,,
27267.0,-0.7762660980224609,0.8338959437855549,,,
27283.0,-1.8783950805664065,0.7777661500160823,,,
27298.0,-6.423696517944336,0.6958568543059277,,,
27314.0,-16.913652420043945,0.5788848332310782,,,
27329.0,-31.7711238861084,0.4238024289113319,,,
27345.0,-46.1235580444336,0.2388884075105517,,,
27361.0,-54.53179168701172,0.0438315468462728,,,
27376.0,-54.62760925292969,-0.1361057385141478,,,
27392.0,-48.09351348876953,-0.2794532802046598,,,
27408.0,-39.65428924560547,-0.3769916016543562,,,
27423.0,-34.115623474121094,-0.435220001257163,,,
27439.0,-33.466827392578125,-0.4732167885374427,,,
27454.0,-36.9384994506836,-0.5144072366324399,,,
27470.0,-41.56376266479492,-0.5769057640968882,,,
27486.0,-44.17978286743164,-0.6663580891658845,,,
27501.0,-42.95719909667969,-0.7737699250226833,,,
27517.0,-36.65723037719727,-0.8786335604687558,,,
27533.0,-24.86869430541992,-0.955792545077995,,,
27548.0,-7.905096054077148,-0.9834980760345416,,,
27564.0,12.932636260986328,-0.9500471468831748,,,
27580.0,34.377384185791016,-0.8570172733505693,,,
27595.0,52.07305908203125,-0.7181979987043501,,,
27611.0,62.26930236816406,-0.5546832212846239,,,
27626.0,63.71153259277344,-0.3879339660809315,,,
27642.0,57.95219039916992,-0.2334618966437071,,,
27658.0,48.88882064819336,-0.0976385384283273,,,
27673.0,40.28219985961914,0.0211224483447636,,,
27689.0,34.06291961669922,0.1274910815337661,,,
27705.0,30.41008758544922,0.2230668271939583,,,
27720.0,27.863807678222656,0.3020357775404713,,,
27736.0,24.43215560913086,0.3509735283857072,,,
27751.0,18.154396057128903,0.3532229438876113,,,
27767.0,7.784145355224609,0.2960741273525827,,,
27783.0,-6.763889312744141,0.1775156031857006,,,
27798.0,-24.34286117553711,0.0093555927733475,,,
27814.0,-42.446083068847656,-0.1849074027965098,,,
27830.0,-57.62726974487305,-0.3766671807577915,,,
27845.0,-66.54133605957031,-0.540380284217273,,,
27861.0,-66.65602111816406,-0.6598128791257156,,,
27876.0,-57.7442512512207,-0.7299886240796893,,,
27892.0,-41.11753845214844,-0.7547812709476663,,,
27908.0,-19.205551147460938,-0.7423191789682968,,,
27923.0,4.971214294433594,-0.7012418327234828,,,
27939.0,28.40584182739257,-0.6398818496674821,,,
27955.0,47.5899658203125,-0.5682346185753925,,,
27970.0,59.27068328857422,-0.5004756768495878,,,
27986.0,61.116329193115234,-0.4551150496926012,,,
28001.0,52.69319534301758,-0.4511290406589562,,,
28017.0,36.29971694946289,-0.5009196623055799,,,
28033.0,16.370838165283203,-0.6032634859434846,,,
28048.0,-1.5699920654296875,-0.7401172624389679,,,
28064.0,-12.514698028564451,-0.8797103217712542,,,
28080.0,-13.489967346191406,-0.9854318288179444,,,
28095.0,-4.033123016357422,-1.027119071360132,,,
28111.0,14.192928314208984,-0.9900136897168388,,,
28126.0,37.456146240234375,-0.8776368304332104,,,
28142.0,61.35643768310547,-0.7077016536741516,,,
28158.0,81.95574951171875,-0.5034786735379496,,,
28173.0,96.79844665527344,-0.2850274955507831,,,
28189.0,105.37550354003906,-0.0643541434617667,,,
28205.0,108.42807006835938,0.153906676712844,,,
28220.0,107.05160522460938,0.3678157299034418,,,
28236.0,101.760498046875,0.5730025648665253,,,
28251.0,91.74541473388672,0.7604409445346986,,,
28267.0,75.60352325439453,0.9183499199797588,,,
28283.0,53.12759399414063,1.0367868777249167,,,
28298.0,25.926494598388672,1.1119681795537573,,,
28314.0,-2.414165496826172,1.1477900655499778,,,
28330.0,-27.47803497314453,1.1539561876118447,,,
28345.0,-45.66420364379883,1.1421679249848908,,,
28361.0,-54.88857650756836,1.1226992001798353,,,
28376.0,-55.70367050170898,1.1029831212169905,,,
28392.0,-50.17104721069336,1.0882663958975374,,,
28408.0,-40.99370574951172,1.083093261726585,,,
28423.0,-30.82807350158692,1.0921540436845667,,,
28439.0,-21.724773406982425,1.1198115341962267,,,
28455.0,-14.97021484375,1.168657894006703,,,
28470.0,-10.77254867553711,1.2379808528815384,,,
28486.0,-8.670433044433594,1.3228040704014403,,,
28501.0,-7.48792839050293,1.4136106770911516,,,
28517.0,-6.041419982910156,1.496562235682994,,,
28533.0,-4.015040397644043,1.5542458625577935,,,
28548.0,-2.950831413269043,1.56741115665105,,,
28564.0,-5.794987678527832,1.518200136228029,,,
28580.0,-15.021953582763672,1.3946986139458166,,,
28595.0,-31.10615348815918,1.1955456824967388,,,
28611.0,-50.80421447753906,0.9326014705579232,,,
28626.0,-68.45795440673828,0.6299681010901487,,,
28642.0,-77.93508911132812,0.3190341426939613,,,
28658.0,-75.61897277832031,0.0310018598502566,,,
28673.0,-62.43777847290039,-0.2104215864372227,,,
28689.0,-42.82000732421875,-0.393519360854745,,,
28705.0,-23.05934333801269,-0.518864456991085,,,
28720.0,-7.969624996185303,-0.5958622074510418,,,
28736.0,0.2778005599975586,-0.6374195356925946,,,
28751.0,1.951276779174805,-0.6550405535910396,,,
28767.0,-1.871011734008789,-0.6559912854171873,,,
28783.0,-9.862987518310549,-0.6429684662994446,,,
28798.0,-20.614591598510746,-0.6156523833015266,,,
28814.0,-32.43565368652344,-0.5730674774627518,,,
28830.0,-42.48704528808594,-0.5158050582584389,,,
28845.0,-47.83967208862305,-0.4475401284764786,,,
28861.0,-46.61029815673828,-0.3755543250002606,,,
28876.0,-39.46131134033203,-0.3100756118608387,,,
28892.0,-28.87125968933105,-0.2623484590560609,,,
28908.0,-17.762266159057617,-0.2416750235414399,,,
28923.0,-7.49055290222168,-0.2522019700419558,,,
28939.0,2.356273412704468,-0.2906535521550157,,,
28955.0,12.784235000610352,-0.3461342441663739,,,
28970.0,23.926773071289062,-0.4024067764505133,,,
28986.0,34.056663513183594,-0.4419914290010625,,,
29001.0,40.35273361206055,-0.4506137618453006,,,
29017.0,40.8681755065918,-0.4204332136279625,,,
29033.0,36.69707489013672,-0.3511512135030118,,,
29048.0,31.044233322143555,-0.2490940502148769,,,
29064.0,27.92700958251953,-0.1251171305724277,,,
29080.0,30.29936790466309,0.0076467468105154,,,
29095.0,38.08990478515625,0.1355003932239624,,,
29111.0,49.157901763916016,0.2451633309449547,,,
29126.0,59.76465225219727,0.3241992917192073,,,
29142.0,66.14178466796875,0.3612252519926233,,,
29158.0,65.67969512939453,0.3462708033570847,,,
29173.0,57.21586608886719,0.2716422925233915,,,
29189.0,41.25620269775391,0.133523430908002,,,
29205.0,20.17856216430664,-0.0658022272183085,,,
29220.0,-2.380523443222046,-0.3157652745386491,,,
29236.0,-22.28749084472656,-0.5964903601232521,,,
29251.0,-35.56221389770508,-0.8800774021250408,,,
29267.0,-40.32019805908203,-1.134636725697983,,,
29283.0,-37.37059783935547,-1.3303626944111897,,,
29298.0,-29.143054962158203,-1.44587991231865,,,
29314.0,-19.121726989746094,-1.4727922009916845,,,
29330.0,-9.92448902130127,-1.4170187593404444,,,
29345.0,-2.825258255004883,-1.2967517246622318,,,
29361.0,1.9604740142822263,-1.13802220334444,,,
29376.0,4.505767822265625,-0.9693543895032948,,,
29392.0,4.641384124755859,-0.8167351778763298,,,
29408.0,1.3576164245605469,-0.6995305056208078,,,
29423.0,-5.663718223571777,-0.6275879687263151,,,
29439.0,-15.243678092956545,-0.5998264353197775,,,
29455.0,-24.278215408325195,-0.6048710745671356,,,
29470.0,-28.573917388916016,-0.6242100602465903,,,
29486.0,-24.661096572875977,-0.6375902898962353,,,
29501.0,-11.9906005859375,-0.6291610894552104,,,
29517.0,5.900175094604492,-0.591974507895278,,,
29533.0,22.71796226501465,-0.5286744190575899,,,
29548.0,31.828144073486328,-0.4477929489092527,,,
29564.0,29.731290817260746,-0.3573526936907725,,,
29580.0,18.298831939697266,-0.2591592834772074,,,
29595.0,3.5531601905822754,-0.1471361541680024,,,
29611.0,-7.292778968811035,-0.0111035276713476,,,
29626.0,-9.33390998840332,0.1555245617674083,,,
29642.0,-2.800384521484375,0.3479899714347194,,,
29658.0,7.113224029541016,0.5466995618312537,,,
29673.0,12.738351821899414,0.7205519350106717,,,
29689.0,7.69573974609375,0.836507516537791,,,
29705.0,-9.276836395263672,0.8718151775582687,,,
29720.0,-33.26420593261719,0.8238286514175885,,,
29736.0,-54.91975402832031,0.7130844455236105,,,
29751.0,-64.85067749023438,0.57797330744045,,,
29767.0,-58.15352249145508,0.4628064215405779,,,
29783.0,-37.51567840576172,0.4038768116561163,,,
29798.0,-11.837093353271484,0.4189820868805666,,,
29814.0,8.583305358886719,0.5043308211524424,,,
29830.0,17.760835647583008,0.6394430118983192,,,
29845.0,16.447599411010742,0.7971359173393612,,,
29861.0,10.903435707092283,0.953691666369968,,,
29876.0,8.231218338012695,1.0948056728201243,,,
29892.0,11.825153350830078,1.2155571079666327,,,
29908.0,19.70385360717773,1.3158988959261757,,,
29923.0,26.855335235595703,1.3952170735508131,,,
29939.0,28.760055541992188,1.4493337372366444,,,
29955.0,24.35652542114257,1.471283965181945,,,
29970.0,15.706201553344728,1.454719920986639,,,
29986.0,5.683692932128906,1.3974108702397992,,,
30001.0,-3.985309600830078,1.3026717191076322,,,
30017.0,-13.394817352294922,1.1781497688557907,,,
30033.0,-23.04094314575196,1.0330305574659704,,,
30048.0,-32.14497375488281,0.8753749290649023,,,
30064.0,-38.58572769165039,0.7107757212989507,,,
30080.0,-39.69107437133789,0.5424346704973995,,,
30095.0,-34.138877868652344,0.3719599508958657,,,
30111.0,-23.634708404541016,0.2001316423861881,,,
30126.0,-11.9036865234375,0.0273968679825985,,,
30142.0,-3.7472877502441406,-0.1456296323359444,,,
30158.0,-2.884468078613281,-0.3173373413513768,,,
30173.0,-10.250045776367188,-0.4840850250426107,,,
30189.0,-23.541400909423828,-0.6396013511974957,,,
30205.0,-38.19321441650391,-0.7755527417519724,,,
30220.0,-49.13351440429688,-0.8834681917966127,,,
30236.0,-52.666046142578125,-0.9573376275445822,,,
30251.0,-48.29735565185547,-0.995619095431977,,,
30267.0,-38.53520202636719,-1.0016086941205888,,,
30283.0,-26.72893142700196,-0.9821083020077648,,,
30298.0,-15.273052215576172,-0.9454080601209532,,,
30314.0,-4.708457946777344,-0.8999304121296765,,,
30330.0,5.360750198364258,-0.8540960680765931,,,
30345.0,13.9290771484375,-0.8165930550774577,,,
30361.0,18.19454002380371,-0.7954079024417092,,,
30377.0,15.146753311157228,-0.7946399986194079,,,
30392.0,4.999469757080078,-0.810113524640409,,,
30408.0,-6.967519760131836,-0.8267569985318798,,,
30423.0,-12.142072677612305,-0.8209119001902938,,,
30439.0,-3.338395118713379,-0.7684249635004698,,,
30455.0,19.70796585083008,-0.6556526246530028,,,
30470.0,49.43574523925781,-0.4877793105320587,,,
30486.0,73.9415054321289,-0.2892859209670736,,,
30502.0,83.81694030761719,-0.0952673055908212,,,
30517.0,77.23128509521484,0.0624973337348999,,,
30533.0,60.175777435302734,0.1675127032469404,,,
30548.0,41.94698715209961,0.2222350006841074,,,
30564.0,28.61857414245605,0.2418328935126101,,,
30580.0,20.28144264221192,0.2422119231485303,,,
30595.0,12.07445240020752,0.2297287100369212,,,
30611.0,-0.7809375524520874,0.1987578865917681,,,
30627.0,-18.264692306518555,0.1383258875336,,,
30642.0,-35.48258590698242,0.0434697422582451,,,
30658.0,-45.41947555541992,-0.0758517588514715,,,
30673.0,-43.81183624267578,-0.1940144651526504,,,
30689.0,-32.095157623291016,-0.2781588306960398,,,
30705.0,-16.1080265045166,-0.3016441871341659,,,
30720.0,-2.7064242362976074,-0.2556598832536217,,,
30736.0,3.872403144836426,-0.1531913123238379,,,
30752.0,4.042658805847168,-0.02361383285423,,,
30767.0,1.4228320121765137,0.0990385712503252,,,
30783.0,-0.0697896480560302,0.1881478760514994,,,
30798.0,1.3475110530853271,0.2312986912926872,,,
30814.0,4.180075645446777,0.2294365558791221,,,
30830.0,4.681649684906006,0.1903657539819424,,,
30845.0,-0.3455748558044433,0.1214374964057244,,,
30861.0,-11.289102554321287,0.0261522036191595,,,
30877.0,-25.072275161743164,-0.09354253906491,,,
30892.0,-35.65389633178711,-0.2313735359351734,,,
30908.0,-36.75284194946289,-0.3718388479874818,,,
30923.0,-24.636234283447266,-0.4903334701186239,,,
30939.0,-0.0302504897117614,-0.5592752973860541,,,
30955.0,31.32570075988769,-0.5575109823104066,,,
30970.0,60.95389938354492,-0.4782754368298255,,,
30986.0,80.73750305175781,-0.331807996386401,,,
31002.0,85.8692398071289,-0.1417165780409405,,,
31017.0,76.54120635986328,0.0626261347595764,,,
31033.0,57.22035598754883,0.2538663302036156,,,
31048.0,34.25639343261719,0.4116676240912099,,,
31064.0,12.845290184020996,0.5242207770951827,,,
31080.0,-3.852621555328369,0.5875933024719672,,,
31095.0,-15.102741241455078,0.6047941148430312,,,
31111.0,-21.01238822937012,0.5854245720062979,,,
31127.0,-21.682172775268555,0.5452594781969305,,,
31142.0,-17.52374839782715,0.5043366495776795,,,
31158.0,-9.799521446228027,0.4827579843344975,,,
31173.0,-0.8832950592041016,0.4949977558081488,,,
31189.0,5.388287544250488,0.5449432347387577,,,
31205.0,5.823594570159912,0.6240994860049505,,,
31220.0,-0.4282431602478027,0.7141066161473942,,,
31236.0,-11.733829498291016,0.7926556039650486,,,
31252.0,-24.334917068481445,0.8402768662859641,,,
31267.0,-34.382503509521484,0.8452666422553234,,,
31283.0,-40.011356353759766,0.805269037608574,,,
31298.0,-41.21901321411133,0.7258698275371317,,,
31314.0,-39.28623580932617,0.6177782447709267,,,
31330.0,-35.60647201538086,0.4940998714397703,,,
31345.0,-31.248205184936523,0.3681577340792851,,,
31361.0,-27.39273834228516,0.2513343238761374,,,
31377.0,-25.4658432006836,0.1503989129657705,,,
31392.0,-26.694913864135746,0.0647847258852214,,,
31408.0,-31.23249244689941,-0.0146303344059233,,,
31423.0,-36.8851318359375,-0.1036506717222089,,,
31439.0,-40.31315612792969,-0.2196137373098229,,,
31455.0,-38.689579010009766,-0.3748199168028053,,,
31470.0,-31.86621856689453,-0.5715922130691375,,,
31486.0,-22.9160213470459,-0.8013384755895238,,,
31502.0,-16.423654556274414,-1.047727580149242,,,
31517.0,-15.80846118927002,-1.2917498780992704,,,
31533.0,-20.43619537353516,-1.515658159150461,,,
31548.0,-25.411027908325195,-1.7041145922270662,,,
31564.0,-24.49606132507324,-1.8432748489609456,,,
31580.0,-13.606155395507812,-1.9201800381291632,,,
31595.0,5.804683685302734,-1.924441175702293,,,
31611.0,27.781169891357425,-1.8520842972147664,,,
31627.0,45.29541778564453,-1.7092080918667591,,,
31642.0,54.48133850097656,-1.5125228658035592,,,
31658.0,56.37532424926758,-1.2854246611041833,,,
31673.0,55.93012237548828,-1.0509631267565416,,,
31689.0,58.23469924926758,-0.8250359854952264,,,
31705.0,65.4988021850586,-0.6130636739007506,,,
31720.0,76.15171813964844,-0.4113676636741828,,,
31736.0,86.09213256835938,-0.2118781420068806,,,
31752.0,92.1080093383789,-0.0072776086254733,,,
31767.0,93.73436737060548,0.2059551192215391,,,
31783.0,93.13819122314452,0.4273856648776944,,,
31798.0,93.19182586669922,0.6542895666829955,,,
31814.0,94.41138458251952,0.8832977888236727,,,
31830.0,94.33885192871094,1.1107377840347774,,,
31845.0,88.4363784790039,1.3316608248507684,,,
31861.0,73.37936401367188,1.5385610315812102,,,
31877.0,49.830299377441406,1.720933685038144,,,
31892.0,22.9658203125,1.8661852543245283,,,
31908.0,-0.1817502975463867,1.961585038628407,,,
31923.0,-13.872900009155272,1.9965085499064652,,,
31939.0,-16.717777252197266,1.964336013347562,,,
31955.0,-12.543835639953612,1.8637872016492365,,,
31970.0,-8.129453659057617,1.6997933925727735,,,
31986.0,-9.542083740234377,1.4839874753269415,,,
32002.0,-18.9211368560791,1.2346059079565832,,,
32017.0,-33.45629119873047,0.9753332940979448,,,
32033.0,-47.13301849365234,0.7326583994100941,,,
32048.0,-53.88471984863281,0.5317234202541669,,,
32064.0,-50.90956878662109,0.3912860428574974,,,
32080.0,-39.51115417480469,0.3190081627019873,,,
32095.0,-24.52170753479004,0.3085738076042669,,,
32111.0,-11.796104431152344,0.3399447764329779,,,
32127.0,-6.135711669921875,0.3833381684519125,,,
32142.0,-9.713571548461914,0.4063779459256838,,,
32158.0,-22.00191307067871,0.3826528566080594,,,
32173.0,-40.35675811767578,0.2990755464451237,,,
32189.0,-60.48396301269531,0.1594471863485987,,,
32205.0,-77.64212799072266,-0.0172866381610738,,,
32220.0,-87.69439697265625,-0.2036880215208069,,,
32236.0,-89.04244995117188,-0.37298028086363,,,
32252.0,-82.93388366699219,-0.5071640307703952,,,
32267.0,-73.32569122314453,-0.6009668859097878,,,
32283.0,-64.65076446533203,-0.660379436276987,,,
32298.0,-59.27901840209961,-0.6970118481854057,,,
32314.0,-56.68344497680664,-0.7213432146413868,,,
32330.0,-53.440711975097656,-0.7381993643758454,,,
32345.0,-46.501373291015625,-0.7463858482219334,,,
32361.0,-35.6335334777832,-0.74209951437291,,,
32377.0,-24.222599029541016,-0.7237630515194263,,,
32392.0,-17.708187103271484,-0.6952737119101396,,,
32408.0,-19.89045143127441,-0.6656091703999504,,,
32423.0,-29.87662506103516,-0.6447483099428415,,,
32439.0,-41.736328125,-0.6378969204749115,,,
32455.0,-47.72257995605469,-0.6410446342613885,,,
32470.0,-42.08625793457031,-0.6404183244061792,,,
32486.0,-24.410587310791016,-0.6166523006841412,,,
32502.0,0.3034439086914062,-0.5522651783028696,,,
32517.0,24.555946350097656,-0.4393343403441515,,,
32533.0,41.79312133789063,-0.2838989976970549,,,
32548.0,49.55118560791016,-0.1048631642691368,,,
32564.0,49.54526519775391,0.072427460384926,,,
32580.0,46.27112579345703,0.2252375457445764,,,
32595.0,44.64522933959961,0.3410383965759612,,,
32611.0,47.61454772949219,0.4201627835832549,,,
32627.0,54.83169174194336,0.4724892682205289,,,
32642.0,63.300758361816406,0.5102174631371109,,,
32658.0,69.34794616699219,0.5407916513228505,,,
32673.0,70.16124725341797,0.5637268528478868,,,
32689.0,65.81957244873047,0.5726133911958019,,,
32705.0,58.717716217041016,0.5603908124291409,,,
32720.0,52.451690673828125,0.5240471427822306,,,
32736.0,49.533939361572266,0.4654443174512878,,,
32752.0,49.85618591308594,0.3876904153826371,,,
32767.0,50.2030143737793,0.2896735560011789,,,
32783.0,45.69236755371094,0.1629726519665306,,,
32798.0,32.453163146972656,-0.0057673081557043,,,
32814.0,9.61675262451172,-0.227205082605446,,,
32830.0,-18.78235244750977,-0.5001306433209153,,,
32845.0,-45.667572021484375,-0.8059825732763204,,,
32861.0,-63.56460952758789,-1.110773394827038,,,
32877.0,-67.3077163696289,-1.374361023449504,,,
32892.0,-56.46454620361328,-1.5630979879193765,,,
32908.0,-34.76075744628906,-1.6600728156827975,,,
32923.0,-8.581377029418945,-1.6684144493545898,,,
32939.0,15.532110214233398,-1.6066918309821854,,,
32955.0,32.8543701171875,-1.4993090363545003,,,
32970.0,41.47761154174805,-1.3669242271635922,,,
32986.0,42.10401916503906,-1.2213277750835256,,,
33002.0,37.54122924804688,-1.0664318067217269,,,
33017.0,30.563522338867188,-0.903681592892106,,,
33033.0,23.259611129760746,-0.7380738571129026,,,
33049.0,16.39510726928711,-0.5810365412325412,,,
33064.0,9.59034538269043,-0.4484403956330389,,,
33080.0,2.4306411743164062,-0.3547589440152485,,,
33095.0,-4.961093902587891,-0.3064164127673651,,,
33111.0,-11.671123504638672,-0.2977258056295318,,,
33127.0,-16.28472137451172,-0.3114920921724795,,,
33142.0,-18.090944290161133,-0.3241163203258745,,,
33158.0,-17.628704071044922,-0.3130117250976397,,,
33174.0,-16.966073989868164,-0.2632563793438634,,,
33189.0,-18.0864372253418,-0.1709796378338169,,,
33205.0,-21.08955764770508,-0.0426247079695731,,,
33220.0,-23.97948455810547,0.1089247049678087,,,
33236.0,-24.23187828063965,0.2692177056735316,,,
33252.0,-20.990278244018555,0.4259831172702236,,,
33267.0,-16.257991790771484,0.5706121956073679,,,
33283.0,-13.56540298461914,0.697563264191686,,,
33299.0,-15.699018478393556,0.8028333855901747,,,
33314.0,-22.47764205932617,0.8828490288984999,,,
33330.0,-30.37507438659668,0.9346352777789864,,,
33345.0,-35.37100601196289,0.9572872253110482,,,
33361.0,-35.736045837402344,0.953995354059696,,,
33377.0,-32.710628509521484,0.9334578523831298,,,
33392.0,-29.31967163085937,0.9095887983648174,,,
33408.0,-27.496177673339844,0.8990131449789364,,,
33424.0,-25.98857307434082,0.9167784725787416,,,
33439.0,-21.135860443115234,0.9716642823237978,,,
33455.0,-9.517438888549805,1.0629618188508558,,,
33470.0,8.94127082824707,1.1802571840769427,,,
33486.0,30.438446044921875,1.3065714669301909,,,
33502.0,49.215145111083984,1.4236785453941412,,,
33517.0,60.26747894287109,1.517328611645106,,,
33533.0,61.94289779663086,1.580113670358741,,,
33549.0,56.035003662109375,1.6109125365406958,,,
33564.0,45.90443801879883,1.6116494504293974,,,
33580.0,34.567588806152344,1.5835021125459423,,,
33595.0,23.583818435668945,1.5248836122289648,,,
33611.0,12.969453811645508,1.432354272916473,,,
33627.0,2.62369155883789,1.3037532986090123,,,
33642.0,-7.202117919921875,1.141391532592131,,,
33658.0,-15.31624984741211,0.9530304706865904,,,
33674.0,-20.802467346191406,0.7497213226353039,,,
33689.0,-23.93672561645508,0.5416101345429524,,,
33705.0,-25.962032318115234,0.3342723726878115,,,
33720.0,-28.1415958404541,0.1280549614218578,,,
33736.0,-30.91877174377441,-0.0787820809655295,,,
33752.0,-33.631004333496094,-0.2846978688470701,,,
33767.0,-34.703338623046875,-0.4805109511398845,,,
33783.0,-32.65293884277344,-0.6491729182641239,,,
33799.0,-27.70941162109375,-0.7708088392374912,,,
33814.0,-22.111202239990234,-0.8312562189800372,,,
33830.0,-19.416866302490234,-0.8300982578713896,,,
33845.0,-22.64735984802246,-0.783928400956665,,,
33861.0,-32.301116943359375,-0.7225822727816672,,,
33877.0,-45.76811218261719,-0.6793827987118374,,,
33892.0,-57.7408447265625,-0.6793910352540411,,,
33908.0,-62.44674682617188,-0.730737723326924,,,
33924.0,-56.09093475341797,-0.8227792577728158,,,
33939.0,-38.43927001953125,-0.9317302276587835,,,
33955.0,-13.080429077148438,-1.031060577760977,,,
33970.0,13.02474594116211,-1.101889490716112,,,
33986.0,32.40203094482422,-1.1388052584999684,,,
34002.0,40.20876693725586,-1.1488766335142937,,,
34017.0,36.19081878662109,-1.1449642134107625,,,
34033.0,24.9311637878418,-1.1371559824347417,,,
34049.0,13.756903648376465,-1.1268946650396212,,,
34064.0,8.848638534545898,-1.1067726822799444,,,
34080.0,12.440299987792969,-1.065878011550112,,,
34095.0,21.81618881225586,-0.9976042700956672,,,
34111.0,30.667537689208984,-0.9055526353218925,,,
34127.0,32.907440185546875,-0.8042127001181151,,,
34142.0,25.21860122680664,-0.7139117180217638,,,
34158.0,8.853899002075195,-0.652527241892748,,,
34174.0,-10.754639625549316,-0.6280358192407048,,,
34189.0,-26.58343315124512,-0.6353149483350702,,,
34205.0,-33.5256233215332,-0.6582230562173702,,,
34220.0,-29.47000503540039,-0.6753423769992724,,,
34236.0,-15.504697799682615,-0.666394514442565,,,
34252.0,4.519748687744141,-0.6167910641858801,,,
34267.0,26.37307357788086,-0.5194132769764864,,,
34283.0,46.15898895263672,-0.3742588604836181,,,
34299.0,61.08525848388672,-0.18712564070908,,,
34314.0,69.96017456054688,0.03196047071653,,,
34330.0,72.84960174560547,0.2705405633585494,,,
34345.0,70.93415832519531,0.5158197044135964,,,
34361.0,66.18495178222656,0.7566222065566578,,,
34377.0,60.4287223815918,0.9842743623890748,,,
34392.0,54.50092697143555,1.1917749616805284,,,
34408.0,47.84909057617188,1.3717342143458044,,,
34424.0,39.31614685058594,1.514706035198812,,,
34439.0,28.13043212890625,1.6096630650218449,,,
34455.0,15.520618438720703,1.6470975427004502,,,
34470.0,4.585227489471436,1.623315111775824,,,
34486.0,-1.815443754196167,1.5433064826849447,,,
34502.0,-2.400908946990967,1.4201043434706957,,,
34517.0,0.7046394348144531,1.270527062801486,,,
34533.0,2.7902183532714844,1.1093606999379708,,,
34549.0,-0.7600975036621094,0.9448867693065428,,,
34564.0,-12.355045318603516,0.7777015301634542,,,
34580.0,-30.370155334472656,0.60275905595267,,,
34595.0,-51.17383575439453,0.4129455444587064,,,
34611.0,-71.0808334350586,0.2022733349568845,,,
34627.0,-88.34280395507812,-0.0321518262292215,,,
34642.0,-102.96832275390624,-0.2889560599993216,,,
34658.0,-115.1645965576172,-0.5613014315017618,,,
34674.0,-123.31165313720705,-0.8211694138527035,,,
34689.0,-123.53825378417967,-1.07099345440694,,,
34705.0,-112.0603256225586,-1.2839180896965747,,,
34720.0,-87.65117645263672,-1.430337529315453,,,
34736.0,-53.348087310791016,-1.4951013668316315,,,
34752.0,-16.108169555664062,-1.476806076395974,,,
34767.0,15.947043418884276,-1.388656513272431,,,
34783.0,37.132808685302734,-1.2537925605637024,,,
34799.0,46.4429817199707,-1.0970059552224252,,,
34814.0,47.049278259277344,-0.9367863829443484,,,
34830.0,43.57527923583984,-0.7815008657221875,,,
34845.0,38.87432861328125,-0.6312208222308796,,,
34861.0,32.88507080078125,-0.4835944283725906,,,
34877.0,23.449954986572266,-0.3400544929742743,,,
34892.0,9.623377799987791,-0.2087463748522478,,,
34908.0,-6.5281476974487305,-0.1026843647324045,,,
34924.0,-19.79000473022461,-0.0344314529890537,,,
34939.0,-24.510692596435547,-0.01039738804527,,,
34955.0,-18.39005470275879,-0.0277537709819986,,,
34970.0,-3.8833956718444815,-0.07526175265027,,,
34986.0,12.43869972229004,-0.13715453468769,,,
35002.0,23.517650604248047,-0.1978484607326425,,,
35017.0,25.98847198486328,-0.2452822430868208,,,
35033.0,22.235858917236328,-0.2718404647168602,,,
35049.0,19.216426849365234,-0.2732554639022447,,,
35064.0,23.94141387939453,-0.2467578169092932,,,
35080.0,39.689903259277344,-0.1897180538941907,,,
35095.0,63.60538101196289,-0.0993556022472986,,,
35111.0,88.14559173583984,0.0266305012057933,,,
35127.0,105.25337982177734,0.1889701457692593,,,
35142.0,110.20638275146484,0.3855988297851558,,,
35158.0,103.53421783447266,0.6103860398387453,,,
35174.0,89.93965911865234,0.851917838863979,,,
35189.0,74.36589813232422,1.0927864850236373,,,
35205.0,59.74231719970703,1.3102008034097483,,,
35220.0,45.725494384765625,1.4786521624165407,,,
35236.0,30.42411422729492,1.574644439857549,,,
35252.0,12.761680603027344,1.5823720690816474,,,
35267.0,-6.169679641723633,1.4983291075803993,,,
35283.0,-23.033939361572266,1.3327859875686645,,,
35299.0,-34.427734375,1.1071052959126944,,,
35314.0,-38.7108039855957,0.8476068150010004,,,
35330.0,-36.94305419921875,0.578304961735728,,,
35345.0,-32.89405059814453,0.31546842180841,,,
35361.0,-30.14185905456543,0.0661781034081255,,,
35377.0,-30.85796546936035,-0.1688156804992894,,,
35392.0,-34.617374420166016,-0.3897064699700137,,,
35408.0,-38.38179397583008,-0.5926836570728048,,,
35424.0,-38.710594177246094,-0.7680617905898116,,,
35439.0,-33.00658416748047,-0.9024175517732532,,,
35455.0,-20.80022048950196,-0.9835011816610878,,,
35470.0,-3.773418664932251,-1.0052694027523412,,,
35486.0,14.956120491027832,-0.9704853789784944,,,
35502.0,31.79839324951172,-0.889821180357947,,,
35517.0,43.52558517456055,-0.7783247335249974,,,
35533.0,48.17753601074219,-0.6512943974669831,,,
35549.0,44.742435455322266,-0.5213915934801884,,,
35564.0,33.17938232421875,-0.3975304586180552,,,
35580.0,14.322582244873049,-0.2847653795680752,,,
35595.0,-9.61770248413086,-0.1840629416114363,,,
35611.0,-34.90323257446289,-0.0916865799373418,,,
35627.0,-56.8366584777832,0.0008482765819633,,,
35642.0,-71.17256164550781,0.1048329805320851,,,
35658.0,-75.7189712524414,0.2299428571221973,,,
35674.0,-70.91210174560547,0.3641808210683632,,,
35689.0,-60.03432083129883,0.521670127721136,,,
35705.0,-46.76390838623047,0.680716524654369,,,
35720.0,-34.647911071777344,0.8101543099288747,,,
35736.0,-25.364791870117188,0.8880850769632073,,,
35752.0,-19.1277084350586,0.9038329574050864,,,
35767.0,-14.632328033447266,0.8619103342513622,,,
35783.0,-10.00668716430664,0.7801378409817479,,,
35799.0,-3.7702465057373047,0.6830271278616455,,,
35814.0,4.5762481689453125,0.5936486198738039,,,
35830.0,13.628679275512695,0.5275388989400158,,,
35846.0,20.615333557128903,0.4907242631757312,,,
35861.0,22.76012420654297,0.4816320660413531,,,
35877.0,18.79139709472656,0.4948862571571483,,,
35892.0,9.770509719848633,0.5246368686429489,,,
35908.0,-0.6749248504638672,0.5660955950323348,,,
35924.0,-7.783533096313477,0.6154625445127063,,,
35939.0,-7.985469818115234,0.6693800688054591,,,
35955.0,-0.5799102783203125,0.7249047525285636,,,
35971.0,11.780513763427734,0.7800323279551999,,,
35986.0,24.164405822753903,0.8338877320616581,,,
36002.0,31.95323944091797,0.885596292607771,,,
36017.0,32.459320068359375,0.9317617961462396,,,
36033.0,26.16975784301757,0.9638092379060884,,,
36049.0,15.71217918395996,0.9672220532943474,,,
36064.0,4.366125106811523,0.9241975292345108,,,
36080.0,-5.356470108032227,0.8195319984435103,,,
36096.0,-12.45655632019043,0.64752043246168,,,
36111.0,-16.821802139282227,0.4165249459703339,,,
36127.0,-18.48812294006348,0.1484447790361542,,,
36142.0,-17.106643676757812,-0.1274951636134157,,,
36158.0,-12.605560302734377,-0.384445836585137,,,
36174.0,-6.529808044433594,-0.6069916795280516,,,
36189.0,-2.8471031188964844,-0.795402815774643,,,
36205.0,-6.683801651000977,-0.962963745752644,,,
36221.0,-21.518280029296875,-1.127471926351111,,,
36236.0,-45.80924987792969,-1.300821629430032,,,
36252.0,-72.321533203125,-1.4815714587727042,,,
36267.0,-90.52103424072266,-1.653961985897337,,,
36283.0,-91.83348083496094,-1.793671677512714,,,
36299.0,-74.24524688720703,-1.8773075570634497,,,
36314.0,-43.31574249267578,-1.8909641247883624,,,
36330.0,-9.43583869934082,-1.8340156877451828,,,
36346.0,17.59346580505371,-1.7170979278917924,,,
36361.0,33.14472579956055,-1.5563438248296046,,,
36377.0,38.7944450378418,-1.367596499247047,,,
36392.0,39.65127944946289,-1.163686907915499,,,
36408.0,40.16300964355469,-0.9555032273145369,,,
36424.0,41.683204650878906,-0.7550511433136602,,,
36439.0,42.38571548461914,-0.5775437932040973,,,
36455.0,39.59543991088867,-0.4403369733988415,,,
36471.0,32.352149963378906,-0.3585956438371557,,,
36486.0,22.429174423217773,-0.339605574138082,,,
36502.0,13.47398281097412,-0.3784788426685651,,,
36517.0,8.740018844604492,-0.4573307297768977,,,
36533.0,9.80805492401123,-0.5484013643328736,,,
36549.0,16.151233673095703,-0.6200189203343428,,,
36564.0,25.41059875488281,-0.6434664311455857,,,
36580.0,34.74622344970703,-0.5988582630137526,,,
36596.0,41.94194030761719,-0.478729870019685,,,
36611.0,45.86702346801758,-0.2887734564912033,,,
36627.0,46.56352233886719,-0.0457852659936649,,,
36642.0,44.97676086425781,0.2265796668228037,,,
36658.0,42.36581039428711,0.5031849887720006,,,
36674.0,39.55420303344727,0.7625346960974445,,,
36689.0,36.6523551940918,0.9902268944314168,,,
36705.0,33.18790435791016,1.179737042390581,,,
36721.0,28.56778717041016,1.330345959699473,,,
36736.0,22.31936264038086,1.4430518509272572,,,
36752.0,14.066874504089355,1.5162046672620684,,,
36767.0,2.7887001037597656,1.5429845977155163,,,
36783.0,-12.541296005249023,1.5123817751740134,,,
36799.0,-32.16437149047852,1.413954263064103,,,
36814.0,-54.160945892333984,1.244745508936085,,,
36830.0,-74.1842041015625,1.0151832951938229,,,
36846.0,-86.88661193847656,0.7505133189674369,,,
36861.0,-88.04059600830078,0.4858272302846508,,,
36877.0,-76.92838287353516,0.2556058916669854,,,
36892.0,-57.58905792236328,0.0816252270496747,,,
36908.0,-37.5736083984375,-0.0355022118723219,,,
36924.0,-25.07062530517578,-0.1169349930941332,,,
36939.0,-24.807767868041992,-0.197431284098273,,,
36955.0,-36.05642318725586,-0.3114760740300457,,,
36971.0,-52.99513626098633,-0.4794898563554423,,,
36986.0,-67.26675415039062,-0.6998817092360643,,,
37002.0,-72.32980346679688,-0.9499650694696048,,,
37017.0,-65.82089233398438,-1.194723401407927,,,
37033.0,-49.91810989379883,-1.3991532484723106,,,
37049.0,-29.808815002441406,-1.5389423793533756,,,
37064.0,-10.795965194702148,-1.6057525191649915,,,
37080.0,3.696264743804932,-1.6062611440899726,,,
37096.0,13.166515350341797,-1.5567256998047478,,,
37111.0,19.49209213256836,-1.4759620328391825,,,
37127.0,25.48602294921875,-1.3791347523093336,,,
37142.0,33.55890274047852,-1.2734721188347131,,,
37158.0,45.1379280090332,-1.1560525450131236,,,
37174.0,60.36139297485352,-1.013732668060798,,,
37189.0,78.30713653564453,-0.8257446789252698,,,
37205.0,97.39013671875,-0.5695441612642831,,,
37221.0,115.17881774902344,-0.2294447612435924,,,
37236.0,128.3822021484375,0.1751552581860634,,,
37252.0,133.95159912109375,0.6302540391681899,,,
37267.0,129.8253631591797,1.1168393393192255,,,
37283.0,116.06287384033205,1.5880141643801722,,,
37299.0,94.54603576660156,1.97529584056198,,,
37314.0,69.25228881835938,2.246154934257741,,,
37330.0,44.901161193847656,2.393270687037887,,,
37346.0,25.487865447998047,2.432552136784616,,,
37361.0,12.766700744628906,2.3927129690029965,,,
37377.0,5.10155200958252,2.3015857808657216,,,
37392.0,-1.734626293182373,2.175601232037289,,,
37408.0,-12.952594757080078,2.0168146190869423,,,
37424.0,-31.64608764648437,1.8177827994741669,,,
37439.0,-57.16519927978516,1.57076347571864,,,
37455.0,-84.928955078125,1.27608973604076,,,
37471.0,-108.55673217773438,0.945732947868013,,,
37486.0,-122.36151123046876,0.6010149810923329,,,
37502.0,-123.55810546875,0.2663723541477603,,,
37517.0,-112.87020874023438,-0.0374712230051079,,,
37533.0,-93.38307189941406,-0.2980166039277929,,,
37549.0,-69.38268280029297,-0.5119740816186567,,,
37564.0,-45.00172424316406,-0.6833202208281487,,,
37580.0,-23.58315086364746,-0.8200486230258403,,,
37596.0,-7.052280902862549,-0.931201386090226,,,
37611.0,4.130457878112793,-1.0249940333310623,,,
37627.0,10.475021362304688,-1.1079297961104626,,,
37642.0,12.977621078491213,-1.1842671610756843,,,
37658.0,13.136735916137695,-1.2552905414413953,,,
37674.0,12.750685691833496,-1.318400139349969,,,
37689.0,13.885194778442385,-1.3666617536324213,,,
37705.0,18.582256317138672,-1.3896697227135255,,,
37721.0,27.706707000732425,-1.3761408487151237,,,
37736.0,40.38579559326172,-1.3177444581165858,,,
37752.0,53.08997344970703,-1.212794676912297,,,
37767.0,60.07426071166992,-1.0681484873354248,,,
37783.0,56.07052230834961,-0.8982318881472843,,,
37799.0,38.37213516235352,-0.7213321490747294,,,
37814.0,9.764569282531738,-0.5545335660231507,,,
37830.0,-21.6217041015625,-0.4092722185240023,,,
37846.0,-45.68962860107422,-0.289111294054966,,,
37861.0,-54.57476806640625,-0.1902135989224323,,,
37877.0,-46.53297424316406,-0.1037715122200329,,,
37892.0,-26.31598281860352,-0.0190306524577614,,,
37908.0,-3.141786575317383,0.0742269359710851,,,
37924.0,14.436637878417969,0.1841072807232575,,,
37939.0,21.669078826904297,0.3156333568633697,,,
37955.0,19.33242416381836,0.4699673918990564,,,
37971.0,11.867083549499512,0.6438280605916814,,,
37986.0,4.385243892669678,0.8295515848944477,,,
38002.0,0.628108024597168,1.0162244343445512,,,
38017.0,1.5468425750732422,1.1917418873526575,,,
38033.0,5.799627304077148,1.3449487626583536,,,
38049.0,10.864669799804688,1.466798583690574,,,
38064.0,13.847089767456056,1.5500157294542711,,,
38080.0,12.100929260253906,1.5877705435283285,,,
38096.0,3.199615240097046,1.572660310154347,,,
38111.0,-13.508955001831056,1.4971898417267746,,,
38127.0,-35.72879409790039,1.3559265618909806,,,
38142.0,-58.20428466796875,1.148241603154879,,,
38158.0,-74.37433624267578,0.8799710183054685,,,
38174.0,-79.27536010742188,0.5629152004611393,,,
38189.0,-72.0904312133789,0.2124601603903158,,,
38205.0,-56.277976989746094,-0.1552360615239726,,,
38221.0,-37.53556060791016,-0.5249544053467563,,,
38236.0,-20.7454891204834,-0.86336989417666,,,
38252.0,-8.039319038391113,-1.164569814483749,,,
38267.0,0.9144301414489746,-1.438467185702857,,,
38283.0,7.3759565353393555,-1.6803634508558336,,,
38299.0,11.69309139251709,-1.8654624648767943,,,
38314.0,13.314157485961914,-1.99432993815667,,,
38330.0,12.04627513885498,-2.073977365730789,,,
38346.0,9.254891395568848,-2.1142885622723067,,,
38361.0,7.597677230834961,-2.122516717678355,,,
38377.0,9.826471328735352,-2.0983697068326435,,,
38392.0,17.431062698364258,-2.032252227738593,,,
38408.0,29.551773071289062,-1.907917371518216,,,
38424.0,43.307899475097656,-1.7087578161636048,,,
38439.0,55.38930130004883,-1.4252667526665104,,,
38455.0,63.7008056640625,-1.060651376480568,,,
38471.0,67.67562103271484,-0.6323956987631606,,,
38486.0,67.99022674560547,-0.1692844817435553,,,
38502.0,65.86671447753906,0.2948081765087874,,,
