NTPTime,BVP,BVP_clean,TAG,emotion_HRI,shortNTPTime
0.0,-189.22821044921875,0.7905240899687362,,,
16.0,-198.60731506347656,0.6995991542086122,,,
31.0,-188.3212432861328,0.6831585256871396,,,
47.0,-157.83045959472656,0.7736282977750777,,,
63.0,-112.84561157226562,0.976215295862055,,,
78.0,-62.70623779296875,1.2725002795237603,,,
94.0,-15.923812866210938,1.6302162894368968,,,
110.0,23.2515869140625,2.014227421728389,,,
125.0,54.677734375,2.394661466723757,,,
141.0,80.63035583496094,2.7505927772866854,,,
156.0,102.447998046875,3.070051375474021,,,
172.0,119.6611328125,3.348308110276964,,,
188.0,131.4571990966797,3.5861121452851017,,,
203.0,138.10812377929688,3.7884412711569646,,,
219.0,142.35081481933594,3.96330978064337,,,
235.0,148.44418334960938,4.119928817078478,,,
250.0,159.30502319335938,4.266071059707744,,,
266.0,174.31515502929688,4.405345658629376,,,
281.0,188.8907012939453,4.535578006169761,,,
297.0,196.59243774414065,4.649237763917313,,,
313.0,191.7845458984375,4.73598666807838,,,
328.0,172.9371337890625,4.786420292218536,,,
344.0,143.46258544921875,4.7955075433063,,,
360.0,110.14968872070312,4.764381938014624,,,
375.0,80.66228485107422,4.699901881314276,,,
391.0,59.84608459472656,4.612354891624025,,,
406.0,48.42979431152344,4.512356710970534,,,
422.0,43.44352722167969,4.408117623343911,,,
438.0,40.61780548095703,4.303868398142008,,,
453.0,36.36810302734375,4.199655914135957,,,
469.0,28.32445526123047,4.092257986337211,,,
485.0,15.166229248046877,3.976778101027561,,,
500.0,-4.012992858886719,3.848496137530952,,,
516.0,-28.803855895996094,3.704607170131765,,,
531.0,-56.85430908203125,3.545484544799029,,,
547.0,-83.22502136230469,3.3751069080858285,,,
563.0,-101.71512603759766,3.2004171534463053,,,
578.0,-107.34873962402344,3.029692553935894,,,
594.0,-99.07142639160156,2.8704016276998225,,,
610.0,-80.7094955444336,2.727291615186595,,,
625.0,-59.35138320922852,2.601408161419831,,,
641.0,-41.98619842529297,2.490381792973304,,,
656.0,-32.39628601074219,2.389801775546097,,,
672.0,-30.444765090942383,2.295094868513472,,,
688.0,-32.59421920776367,2.2032112106466477,,,
703.0,-34.30112075805664,2.1135948516812904,,,
719.0,-31.6940860748291,2.028241477176705,,,
735.0,-22.14400863647461,1.9509501976480392,,,
750.0,-4.239643096923828,1.8860640932705264,,,
766.0,21.704608917236328,1.837066300973488,,,
781.0,53.02300643920898,1.8053959292649424,,,
797.0,84.74935913085938,1.789788804604206,,,
813.0,110.23450469970705,1.7863179675320804,,,
828.0,123.47705078125,1.7891067469263933,,,
844.0,121.43045806884766,1.791468700850635,,,
860.0,104.7125473022461,1.787096156345435,,,
875.0,77.12090301513672,1.7709544983210328,,,
891.0,43.02839279174805,1.739732790201321,,,
906.0,6.137285232543945,1.6919395381654143,,,
922.0,-31.55673217773437,1.6278663072323452,,,
938.0,-68.00405883789062,1.5495884090290712,,,
953.0,-100.0798568725586,1.4609769683444045,,,
969.0,-122.83753967285156,1.3675106395225047,,,
985.0,-130.4558563232422,1.275653028263977,,,
1000.0,-119.90642547607422,1.198022497161872,,,
1016.0,-92.4014663696289,1.1338924771990608,,,
1031.0,-54.8155632019043,1.0829384124914063,,,
1047.0,-16.825366973876953,1.0400031240136558,,,
1063.0,13.060302734375,0.9976351877577926,,,
1078.0,30.92416381835937,0.9490476929427266,,,
1094.0,38.58697128295898,0.890262329658583,,,
1110.0,41.421268463134766,0.8207290420047898,,,
1125.0,44.87531280517578,0.7424551314293828,,,
1141.0,50.807899475097656,0.6582783791630276,,,
1156.0,56.85198211669922,0.5701567489636261,,,
1172.0,57.62019348144531,0.4782028636437865,,,
1188.0,47.91554260253906,0.3807982980247718,,,
1203.0,26.60339736938477,0.2756656548420685,,,
1219.0,-1.995380401611328,0.1614106759122853,,,
1235.0,-28.53661346435547,0.0388718863098444,,,
1250.0,-42.06997299194336,-0.0883191774570677,,,
1266.0,-35.022361755371094,-0.2142633117529651,,,
1281.0,-7.863588333129883,-0.3322514912581269,,,
1297.0,29.866329193115234,-0.4365839240698978,,,
1313.0,63.90679168701172,-0.5240024119866074,,,
1328.0,81.8746337890625,-0.5941699937163841,,,
1344.0,79.71015167236328,-0.6490974410148721,,,
1360.0,62.872589111328125,-0.6919177930701239,,,
1375.0,42.95222473144531,-0.7256685416929238,,,
1391.0,29.931114196777344,-0.7526215591346637,,,
1406.0,27.20061492919922,-0.7743009352062709,,,
1422.0,30.40810775756836,-0.7919118254883554,,,
1438.0,31.63614273071289,-0.8067223606980809,,,
1453.0,24.88171768188477,-0.8200765736866751,,,
1469.0,9.000190734863281,-0.8330394365327906,,,
1485.0,-13.084136962890623,-0.8459508515091279,,,
1500.0,-37.82952880859375,-0.8582218813027614,,,
1516.0,-62.34049224853516,-0.8685398625405308,,,
1531.0,-85.09457397460938,-0.8753991289971242,,,
1547.0,-103.95660400390624,-0.8777059600956189,,,
1563.0,-115.32707214355467,-0.8751972398408256,,,
1578.0,-115.73992919921876,-0.8685230729475182,,,
1594.0,-104.69208526611328,-0.858980157468355,,,
1610.0,-85.90621948242188,-0.847980129653719,,,
1625.0,-65.66401672363281,-0.8363931684457239,,,
1641.0,-49.48121643066406,-0.8239507678592136,,,
1656.0,-38.32298278808594,-0.8089295294603119,,,
1672.0,-28.51520538330078,-0.7883321725284915,,,
1688.0,-14.341445922851562,-0.7586785657059429,,,
1703.0,8.502838134765625,-0.7173039297750923,,,
1719.0,39.47548294067383,-0.6637952500046174,,,
1735.0,73.2498550415039,-0.6010062198314331,,,
1750.0,101.36309051513672,-0.5351069313318918,,,
1766.0,115.69813537597656,-0.4744046817798334,,,
1781.0,112.10308074951172,-0.4271439591591032,,,
1797.0,91.6049575805664,-0.3989623731763548,,,
1813.0,60.84526062011719,-0.3909137498987027,,,
1828.0,29.694786071777344,-0.3988242208469175,,,
1844.0,8.0540771484375,-0.4142541965502421,,,
1860.0,1.6148910522460938,-0.4267128170150018,,,
1875.0,10.201576232910156,-0.4263070988984492,,,
1891.0,28.23326873779297,-0.4059227575166305,,,
1906.0,47.39619445800781,-0.3623439258378458,,,
1922.0,60.71937561035156,-0.2962340079780485,,,
1938.0,65.05758666992188,-0.2113382619979914,,,
1953.0,61.662384033203125,-0.1134242431694739,,,
1969.0,54.53092956542969,-0.0093298872827252,,,
1985.0,47.99242401123047,0.0938005952220894,,,
2000.0,43.9281005859375,0.1892265712498175,,,
2016.0,41.361366271972656,0.2714020886428279,,,
2032.0,37.49639892578125,0.3367997515657606,,,
2047.0,29.79459381103516,0.3845059211518081,,,
2063.0,18.25987243652344,0.4162596803874046,,,
2078.0,5.808624267578125,0.4357664805457216,,,
2094.0,-3.3678436279296875,0.4474319002692276,,,
2110.0,-6.103485107421875,0.4549605550860149,,,
2125.0,-2.6078109741210938,0.4603779280311172,,,
2141.0,2.7326431274414062,0.463881258268438,,,
2157.0,3.378662109375,0.464566311464644,,,
2172.0,-5.979393005371094,0.4616731190018172,,,
2188.0,-26.06488800048828,0.4557397087757327,,,
2203.0,-51.45423126220703,0.4490813733274501,,,
2219.0,-72.2445068359375,0.4453253555732189,,,
2235.0,-78.05050659179688,0.4481837423875325,,,
2250.0,-62.855918884277344,0.4600145499560683,,,
2266.0,-28.098716735839844,0.480809698367289,,,
2282.0,16.967697143554688,0.5080141285587036,,,
2297.0,58.28624725341797,0.5371631965766156,,,
2313.0,82.1655044555664,0.5629699216147616,,,
2328.0,79.87934112548828,0.5803908355888845,,,
2344.0,51.021759033203125,0.5853649386874135,,,
2360.0,3.0338134765625,0.5751984692933175,,,
2375.0,-51.59239196777344,0.5487550100502885,,,
2391.0,-100.33277893066406,0.5066027569949452,,,
2407.0,-135.0283203125,0.4511264313843383,,,
2422.0,-153.45545959472656,0.3864815567919086,,,
2438.0,-157.97694396972656,0.3182660905129059,,,
2453.0,-152.85934448242188,0.252895949891713,,,
2469.0,-141.76754760742188,0.1967855902956665,,,
2485.0,-126.32862854003906,0.1554557192709811,,,
2500.0,-107.03060913085938,0.1326318807906458,,,
2516.0,-84.98593139648438,0.1293716066649125,,,
2532.0,-63.05332946777344,0.1433545648409563,,,
2547.0,-46.6160888671875,0.1686447558005694,,,
2563.0,-42.23927307128906,0.1963080956632629,,,
2578.0,-54.7330322265625,0.2160684385623272,,,
2594.0,-84.75059509277344,0.2187144089769243,,,
2610.0,-126.66340637207033,0.1984700810769854,,,
2625.0,-170.26304626464844,0.1543595109106388,,,
2641.0,-204.3886108398437,0.0899296840033914,,,
2657.0,-220.9633331298828,0.0114325160380476,,,
2672.0,-218.01773071289065,-0.0746885405207462,,,
2688.0,-199.5773162841797,-0.1638389031794909,,,
2703.0,-172.65625,-0.2539661464955471,,,
2719.0,-143.4129638671875,-0.3447777902086607,,,
2735.0,-115.45794677734376,-0.4361306055167968,,,
2750.0,-90.03317260742188,-0.5266227556113456,,,
2766.0,-67.60165405273438,-0.6132326665135529,,,
2782.0,-49.38589477539063,-0.6922267598211875,,,
2797.0,-37.34783935546875,-0.7608514058605536,,,
2813.0,-33.3712158203125,-0.8188927199946581,,,
2828.0,-38.00677490234375,-0.8692274866463022,,,
2844.0,-49.0400390625,-0.9169612894590146,,,
2860.0,-62.21286010742188,-0.96742223168753,,,
2875.0,-71.66372680664062,-1.0238354801768936,,,
2891.0,-71.52926635742188,-1.085687157916631,,,
2907.0,-57.05319213867188,-1.1485047519521348,,,
2922.0,-26.20199584960937,-1.2051541583530765,,,
2938.0,19.0845947265625,-1.2480676680540053,,,
2953.0,73.01583862304688,-1.2714050423331145,,,
2969.0,127.92877197265624,-1.2722260930734075,,,
2985.0,178.0916748046875,-1.2502890084241316,,,
3000.0,221.88540649414065,-1.2068051631615282,,,
3016.0,261.8834533691406,-1.1429898495725428,,,
3032.0,301.8884582519531,-1.059272041482581,,,
3047.0,343.8785400390625,-0.9555657409230364,,,
3063.0,386.0540466308594,-0.8323405259037058,,,
3078.0,423.8265075683594,-0.6917498330984575,,,
3094.0,452.1580505371094,-0.5380505920140667,,,
3110.0,467.9408264160156,-0.3769719031114075,,,
3125.0,471.39837646484375,-0.2143021798017909,,,
3141.0,464.5040283203125,-0.0544116260398421,,,
3157.0,449.04339599609375,0.1005268795192923,,,
3172.0,425.8762512207031,0.2502113975492142,,,
3188.0,395.3993225097656,0.394921682845897,,,
3203.0,359.25323486328125,0.5338732329073375,,,
3219.0,320.7241516113281,0.6639943086271567,,,
3235.0,282.93096923828125,0.7797363638290923,,,
3250.0,246.7510681152344,0.87410381336043,,,
3266.0,211.29885864257807,0.9405832472769184,,,
3282.0,174.25225830078125,0.975264593407428,,,
3297.0,133.39694213867188,0.978336575528794,,,
3313.0,87.535888671875,0.954359018823721,,,
3328.0,37.115814208984375,0.911179492293388,,,
3344.0,-15.140472412109377,0.8578788885531646,,,
3360.0,-65.1824951171875,0.8024842843329639,,,
3375.0,-109.292724609375,0.7502317064046929,,,
3391.0,-147.02255249023438,0.7028823228461419,,,
3407.0,-177.94091796875,0.6591273798503418,,,
3422.0,-202.361083984375,0.6156935332984513,,,
3438.0,-221.52700805664065,0.568591810892243,,,
3453.0,-236.9088134765625,0.514095822411273,,,
3469.0,-250.34811401367188,0.4493550799737075,,,
3485.0,-261.966552734375,0.3728227736402175,,,
3500.0,-269.8673095703125,0.2847345864329865,,,
3516.0,-270.5987548828125,0.1876952833969606,,,
3532.0,-262.8634948730469,0.0871365581334716,,,
3547.0,-244.58987426757807,-0.0087994838067651,,,
3563.0,-214.9473571777344,-0.090341695800855,,,
3578.0,-175.203857421875,-0.1481462376982203,,,
3594.0,-127.644287109375,-0.1757752401921735,,,
3610.0,-83.36798095703125,-0.1716324779804665,,,
3625.0,-56.1180419921875,-0.1394698569494574,,,
3641.0,-52.310546875,-0.0872082990342485,,,
3657.0,-55.03034973144531,-0.0246240487573883,,,
3672.0,-56.65788269042969,0.039111512896538,,,
3688.0,-53.8648681640625,0.0972189085009939,,,
3703.0,-49.90336608886719,0.1461305926890263,,,
3719.0,-44.5052490234375,0.1855155833038571,,,
3735.0,-34.44557189941406,0.2178617797573339,,,
3750.0,-16.4766845703125,0.2478945704891857,,,
3766.0,11.831710815429688,0.2819167438684611,,,
3782.0,50.9432373046875,0.3269766897843106,,,
3797.0,98.98045349121094,0.3897133768425739,,,
3813.0,149.91769409179688,0.4748439243895494,,,
3828.0,198.7379302978516,0.5835298709552671,,,
3844.0,241.7302703857422,0.7121555114814481,,,
3860.0,261.4493408203125,0.8521580274628019,,,
3875.0,248.1306610107422,0.991273859145486,,,
3891.0,204.53797912597656,1.1159634395765683,,,
3907.0,145.25852966308594,1.2142052256420972,,,
3922.0,86.23077392578125,1.2776940313268277,,,
3938.0,37.075286865234375,1.3028102514152744,,,
3953.0,-0.9218368530273438,1.29028256366892,,,
3969.0,-29.21112060546875,1.243915654353715,,,
3985.0,-49.79329681396485,1.1689401970183964,,,
4000.0,-64.52066802978516,1.0705035008903634,,,
4016.0,-72.87378692626953,0.9526619631303784,,,
4032.0,-75.2754135131836,0.8180373644928919,,,
4047.0,-73.0355453491211,0.6680999071524837,,,
4063.0,-68.44303894042969,0.5038782834559578,,,
4078.0,-64.0267105102539,0.3268094599967714,,,
4094.0,-62.08050537109375,0.139444272060009,,,
4110.0,-62.71288299560547,-0.0542057004854111,,,
4125.0,-63.46826171875,-0.2488035066416849,,,
4141.0,-61.821876525878906,-0.4383361580591056,,,
4157.0,-55.048118591308594,-0.6171983900432562,,,
4172.0,-44.54628753662109,-0.7814766451287035,,,
4188.0,-35.35531997680664,-0.9300307421887222,,,
4203.0,-34.70511245727539,-1.0648920614016468,,,
4219.0,-48.234622955322266,-1.1906222198455023,,,
4235.0,-76.97010803222656,-1.3126255436759466,,,
4250.0,-116.81355285644533,-1.4348568444344407,,,
4266.0,-158.48455810546875,-1.5576972611840925,,,
4282.0,-191.9786071777344,-1.676804528386507,,,
4297.0,-205.1595916748047,-1.7834370335714589,,,
4313.0,-192.3521423339844,-1.8662205304923103,,,
4328.0,-154.21163940429688,-1.9137970599299208,,,
4344.0,-96.3626480102539,-1.9174942311036771,,,
4360.0,-27.412643432617188,-1.8731930306387496,,,
4375.0,43.17523193359375,-1.7819047527250518,,,
4391.0,105.63075256347656,-1.6490281389728108,,,
4407.0,155.38255310058594,-1.4826629617799885,,,
4422.0,190.10745239257807,-1.291586246158554,,,
4438.0,210.88946533203125,-1.083524062349582,,,
4453.0,221.0240478515625,-0.8642077551195089,,,
4469.0,224.6356506347656,-0.6374369005138104,,,
4485.0,225.2767028808593,-0.4060400269104489,,,
4500.0,221.04454040527344,-0.1733126940914841,,,
4516.0,215.49917602539065,0.0556806995441637,,,
4532.0,201.2651824951172,0.2735549933713393,,,
4547.0,175.4756317138672,0.4711910757459583,,,
4563.0,136.541015625,0.6394325104006542,,,
4578.0,87.00590515136719,0.7713777013006499,,,
4594.0,33.592002868652344,0.864405609437635,,,
4610.0,-18.240066528320312,0.9210695049954488,,,
4625.0,-62.27284240722656,0.948424534142056,,,
4641.0,-93.81488037109376,0.956068508806673,,,
4657.0,-110.4411849975586,0.9537624909834492,,,
4672.0,-113.78382873535156,0.9495564062110732,,,
4688.0,-106.2360382080078,0.9488630219851972,,,
4704.0,-91.2568817138672,0.954319522109358,,,
4719.0,-71.59778594970703,0.9659927061202934,,,
4735.0,-49.39545440673828,0.9816145675756276,,,
4750.0,-28.058815002441406,0.9968478445949752,,,
4766.0,-10.643096923828123,1.0057931563488391,,,
4782.0,0.9214630126953124,1.001931650378602,,,
4797.0,6.7565765380859375,0.9794951536877904,,,
4813.0,7.161422729492188,0.9349977918614588,,,
4829.0,3.651382446289064,0.8684658481679502,,,
4844.0,-3.398666381835937,0.7838458868990198,,,
4860.0,-14.40240478515625,0.6882295353317087,,,
4875.0,-30.94586181640625,0.5899487395600351,,,
4891.0,-53.4842529296875,0.4961392166078194,,,
4907.0,-82.78607177734375,0.410712003510033,,,
4922.0,-118.3073272705078,0.3335324110141097,,,
4938.0,-157.6454620361328,0.2610392793689444,,,
4954.0,-198.6657257080078,0.1879106618888206,,,
4969.0,-239.46163940429688,0.1090490668256766,,,
4985.0,-279.5346069335937,0.0212005107596328,,,
5000.0,-319.306884765625,-0.0762188928174348,,,
5016.0,-345.75,-0.1812007208071346,,,
5032.0,-351.8692626953125,-0.2899270965630501,,,
5047.0,-338.8562316894531,-0.3978094941515229,,,
5063.0,-314.50372314453125,-0.5002864290716029,,,
5079.0,-285.9682006835937,-0.5931245717290478,,,
5094.0,-254.83642578125,-0.6723652692337807,,,
5110.0,-217.08155822753903,-0.7343172118419427,,,
5125.0,-167.91285705566406,-0.7759090716999211,,,
5141.0,-106.13890075683594,-0.7953469611737916,,,
5157.0,-36.25849914550781,-0.7926591861176505,,,
5172.0,30.9285888671875,-0.7696488940524993,,,
5188.0,84.43930053710938,-0.7290940500843193,,,
5204.0,118.254638671875,-0.6735348620997503,,,
5219.0,133.32125854492188,-0.604328383235172,,,
5235.0,135.44046020507812,-0.5215828019816089,,,
5250.0,131.57769775390625,-0.4251292259123351,,,
5266.0,126.73668670654295,-0.3161088019530014,,,
5282.0,122.90950012207033,-0.198377999821407,,,
5297.0,120.15520477294922,-0.0789696857408112,,,
5313.0,116.42984771728516,0.0327293701148313,,,
5329.0,110.6479263305664,0.1268373655463152,,,
5344.0,103.60406494140624,0.1951749760168415,,,
5360.0,97.18119049072266,0.2329950850120798,,,
5375.0,92.73403930664062,0.2396822831062343,,,
5391.0,90.23821258544922,0.2182993168104588,,,
5407.0,88.66751861572266,0.1742786880531671,,,
5422.0,86.73966979980469,0.1137981498628617,,,
5438.0,84.0576400756836,0.0423889168901938,,,
5454.0,80.135009765625,-0.0358434407828364,,,
5469.0,75.22400665283203,-0.1182595827152239,,,
5485.0,70.20962524414062,-0.2031146477645299,,,
5500.0,66.07789611816406,-0.288682752628439,,,
5516.0,63.26937484741211,-0.3724596233397167,,,
5532.0,61.494510650634766,-0.450780483418681,,,
5547.0,60.14303588867188,-0.5190359599160563,,,
5563.0,58.77633285522461,-0.5724403132317339,,,
5579.0,57.5442008972168,-0.6070883575584116,,,
5594.0,56.455448150634766,-0.6209297898466203,,,
5610.0,55.58176040649414,-0.6143363341664002,,,
5625.0,55.01238250732422,-0.5901000748792753,,,
5641.0,54.67647171020508,-0.5528973867484903,,,
5657.0,54.49209213256836,-0.508406073300988,,,
5672.0,54.10458755493164,-0.4623290093635785,,,
5688.0,53.63671112060547,-0.4195469809917156,,,
5704.0,53.16990280151367,-0.3835295522962729,,,
5719.0,53.11335372924805,-0.3560385476226691,,,
5735.0,53.90728759765625,-0.3371145391770865,,,
5750.0,55.79899978637695,-0.3253396535427389,,,
5766.0,59.20986175537109,-0.3183663419249078,,,
5782.0,64.28334045410156,-0.3136403795147762,,,
5797.0,69.8650131225586,-0.3091377605171436,,,
5813.0,73.80855560302734,-0.3038551769152348,,,
5829.0,73.27040100097656,-0.297825757700552,,,
5844.0,65.95268249511719,-0.2915991344728935,,,
5860.0,52.01822662353516,-0.285363195289344,,,
5875.0,34.18925476074219,-0.2780711129437079,,,
5891.0,17.114601135253906,-0.2669641822450331,,,
5907.0,5.6114044189453125,-0.2477271450228117,,,
5922.0,2.2630538940429688,-0.2152567214954856,,,
5938.0,6.627655029296875,-0.1647979118840325,,,
5954.0,15.213890075683594,-0.0931103951498009,,,
5969.0,23.64619445800781,0.0006239764313602,,,
5985.0,28.578834533691406,0.1143393895289975,,,
6000.0,28.58434295654297,0.2431863535301311,,,
6016.0,23.973403930664062,0.3802472085571511,,,
6032.0,15.555564880371094,0.517761736729431,,,
6047.0,4.0133209228515625,0.6485066725051712,,,
6063.0,-9.84246826171875,0.7668201188952037,,,
6079.0,-24.369773864746094,0.8689034112600065,,,
6094.0,-36.8782958984375,0.9524327855364936,,,
6110.0,-44.36933898925781,1.015903719778802,,,
6125.0,-44.83990478515625,1.0582348352765694,,,
6141.0,-38.48222351074219,1.0789060974365798,,,
6157.0,-27.2181396484375,1.0784786339511707,,,
6172.0,-14.663406372070312,1.059036629223354,,,
6188.0,-4.136260986328125,1.0241133894083276,,,
6204.0,1.6815948486328125,0.977995467018041,,,
6219.0,1.53094482421875,0.9247110397825008,,,
6235.0,-4.533004760742188,0.8672227634838009,,,
6250.0,-15.595443725585938,0.8072249271552084,,,
6266.0,-29.3739013671875,0.7455783236324043,,,
6282.0,-42.59635925292969,0.6830440589554244,,,
6297.0,-51.66925048828125,0.6208307871705093,,,
6313.0,-54.13182067871094,0.5606304103192548,,,
6329.0,-50.1561279296875,0.5041747920312837,,,
6344.0,-42.49948120117188,0.4526671939173872,,,
6360.0,-34.86505126953125,0.4065157866069221,,,
6375.0,-29.591705322265625,0.3655754908531326,,,
6391.0,-25.944625854492188,0.3297430778360402,,,
6407.0,-20.54066467285156,0.2994981820381315,,,
6422.0,-10.076461791992188,0.276007126139287,,,
6438.0,6.2877960205078125,0.260680208581047,,,
6454.0,25.754470825195312,0.2544064425771666,,,
6469.0,43.23991394042969,0.2568709602674755,,,
6485.0,54.11280822753906,0.2662947717426386,,,
6500.0,56.15144348144531,0.2796920670143645,,,
6516.0,50.09503173828125,0.2934850359256908,,,
6532.0,38.21919250488281,0.3042001192618053,,,
6547.0,22.311798095703125,0.3090273212303193,,,
6563.0,3.06890869140625,0.3061669341688625,,,
6579.0,-18.52841186523437,0.2949889485189184,,,
6594.0,-40.46359252929688,0.2760318355681216,,,
6610.0,-59.4564208984375,0.2508175971328157,,,
6625.0,-72.02920532226562,0.2214530388024693,,,
6641.0,-77.08685302734375,0.1900668428345189,,,
6657.0,-76.44631958007812,0.158247240557166,,,
6672.0,-74.28549194335938,0.1266938257795587,,,
6688.0,-74.38906860351562,0.0952163533767189,,,
6704.0,-78.46060180664062,0.0630387518276999,,,
6719.0,-85.19735717773438,0.0292120276054412,,,
6735.0,-91.8154296875,-0.0070862828222609,,,
6750.0,-96.02877807617188,-0.0464673217128341,,,
6766.0,-97.65731811523438,-0.0893848657339567,,,
6782.0,-98.70379638671876,-0.1361562149281828,,,
6797.0,-101.64144897460938,-0.1868413139123872,,,
6813.0,-108.03485107421876,-0.2410448977294907,,,
6829.0,-117.8370361328125,-0.2978456722072062,,,
6844.0,-129.55239868164062,-0.356030586076262,,,
6860.0,-141.7908935546875,-0.4146106623189487,,,
6875.0,-154.43685913085938,-0.4733500322473483,,,
6891.0,-167.73167419433594,-0.5329406249309422,,,
6907.0,-181.58497619628903,-0.5946063687380696,,,
6922.0,-193.345947265625,-0.6592535820442775,,,
6938.0,-198.95880126953125,-0.7265884319498227,,,
6954.0,-194.3544769287109,-0.7946874635456626,,,
6969.0,-178.12095642089844,-0.8602724400504539,,,
6985.0,-152.24273681640625,-0.9195448448747005,,,
7000.0,-121.60066223144533,-0.9691277440369108,,,
7016.0,-91.98619079589844,-1.0066367702416166,,,
7032.0,-66.6453857421875,-1.0306658400809046,,,
7047.0,-44.939361572265625,-1.0403461017857758,,,
7063.0,-23.6829833984375,-1.0348757454441186,,,
7079.0,1.350067138671875,-1.013384690921278,,,
7094.0,32.90081787109375,-0.9752394872472516,,,
7110.0,70.62307739257812,-0.9205933870327674,,,
7125.0,111.63536071777344,-0.8508311481309403,,,
7141.0,151.57626342773438,-0.7686223106425593,,,
7157.0,186.2880859375,-0.6775169179743168,,,
7172.0,212.4739532470703,-0.5812558682652015,,,
7188.0,228.4671325683593,-0.4831039627443708,,,
7204.0,233.95001220703125,-0.3854999319813925,,,
7219.0,229.51495361328125,-0.2901788458552206,,,
7235.0,215.87042236328125,-0.1987215569989991,,,
7250.0,193.1639862060547,-0.113294125781162,,,
7266.0,161.0279083251953,-0.0372225089057632,,,
7282.0,119.28398895263672,0.0249432453555077,,,
7297.0,68.39057159423828,0.0680618000781817,,,
7313.0,10.91033935546875,0.0876399935935721,,,
7329.0,-48.55327606201172,0.0812966594113425,,,
7344.0,-103.65444946289062,0.049902805489925,,,
7360.0,-147.04769897460938,-0.0020831837345287,,,
7375.0,-172.12704467773438,-0.067270916476121,,,
7391.0,-174.5190887451172,-0.1367749844838386,,,
7407.0,-153.0460205078125,-0.2019258142231485,,,
7422.0,-110.5830535888672,-0.2556910072456985,,,
7438.0,-53.629493713378906,-0.2934443126053762,,,
7454.0,9.243522644042969,-0.3130503934868768,,,
7469.0,68.96643829345703,-0.3145108236233245,,,
7485.0,118.7693328857422,-0.2995057666196012,,,
7501.0,154.664306640625,-0.2710517507499136,,,
7516.0,174.41363525390625,-0.2332807186225402,,,
7532.0,176.32827758789062,-0.1911791692763467,,,
7547.0,160.135498046875,-0.1501119590071135,,,
7563.0,126.93951416015624,-0.1150882469555487,,,
7579.0,80.74716186523438,-0.0899103804581643,,,
7594.0,29.230527877807617,-0.0764649658746759,,,
7610.0,-17.87381362915039,-0.0744038333526911,,,
7626.0,-51.83154678344727,-0.0813326963392555,,,
7641.0,-68.4910659790039,-0.09344824182436,,,
7657.0,-69.11228942871094,-0.1064240216895212,,,
7672.0,-59.160438537597656,-0.1162907571399073,,,
7688.0,-44.58416748046875,-0.1200845080614811,,,
7704.0,-29.46744537353516,-0.1161120260090776,,,
7719.0,-14.87506103515625,-0.1037762853831388,,,
7735.0,0.3389339447021484,-0.083010614104727,,,
7751.0,17.559040069580078,-0.0534917015188922,,,
7766.0,38.0345573425293,-0.0139211045288147,,,
7782.0,63.591064453125,0.0382807323489552,,,
7797.0,95.94863891601562,0.106612198011385,,,
7813.0,135.8326416015625,0.1944572838441071,,,
7829.0,180.65509033203125,0.3037075135511242,,,
7844.0,223.4029541015625,0.433592432982148,,,
7860.0,254.44436645507807,0.5802388981561607,,,
7876.0,265.3478698730469,0.7371678045468606,,,
7891.0,252.97088623046875,0.8965085478548662,,,
7907.0,220.5152130126953,1.0504136135773512,,,
7922.0,176.25042724609375,1.192154724387403,,,
7938.0,129.64566040039062,1.3166511341735576,,,
7954.0,87.4256820678711,1.4205244360836908,,,
7969.0,51.85223007202149,1.5019676074776458,,,
7985.0,22.026233673095703,1.5606566332279197,,,
8001.0,-3.682586669921875,1.5977028598991638,,,
8016.0,-25.480209350585938,1.615441162077612,,,
8032.0,-42.853004455566406,1.6168391289567166,,,
8047.0,-55.27637100219727,1.6045123244170911,,,
8063.0,-63.45892333984375,1.5796075740212878,,,
8079.0,-69.93437194824219,1.5409935965019617,,,
8094.0,-78.72461700439453,1.4851693241076298,,,
8110.0,-94.2545166015625,1.4070730141020384,,,
8126.0,-119.96222686767578,1.3016457649549191,,,
8141.0,-156.33412170410156,1.16569855126092,,,
8157.0,-199.2227020263672,0.9994663158286192,,,
8172.0,-240.98497009277344,0.8072827503585255,,,
8188.0,-272.1654357910156,0.597090994738694,,,
8204.0,-285.5782470703125,0.3789440545749792,,,
8219.0,-279.9151611328125,0.1630732440489157,,,
8235.0,-260.265380859375,-0.0416998593723618,,,
8251.0,-235.40069580078125,-0.2286040415305379,,,
8266.0,-212.8177185058593,-0.3925068717565713,,,
8282.0,-194.2628936767578,-0.5289310089479152,,,
8297.0,-175.52394104003906,-0.6333214895722171,,,
8313.0,-149.9470672607422,-0.7012678993997338,,,
8329.0,-113.55624389648438,-0.7298401000674941,,,
8344.0,-68.61344909667969,-0.7195146432718165,,,
8360.0,-23.149810791015625,-0.675731658652287,,,
8376.0,12.3934326171875,-0.6091792151495402,,,
8391.0,30.21099281311035,-0.5344308409561007,,,
8407.0,28.91584205627441,-0.4672824373664684,,,
8422.0,13.207756042480469,-0.4216744732243503,,,
8438.0,-9.161819458007812,-0.4071886285152605,,,
8454.0,-31.05899238586425,-0.4277691638173309,,,
8469.0,-48.02744674682617,-0.4817632049926539,,,
8485.0,-58.5545539855957,-0.5629097360264949,,,
8501.0,-62.64933013916016,-0.6617470824698737,,,
8516.0,-59.8608627319336,-0.7670572914975938,,,
8532.0,-48.919532775878906,-0.8672369189267283,,,
8547.0,-29.31208229064941,-0.9516437715964956,,,
8563.0,-2.9459800720214844,-1.0119098462307543,,,
8579.0,26.093788146972656,-1.0430197356416846,,,
8594.0,53.15715026855469,-1.0438326826134623,,,
8610.0,75.85009765625,-1.0168263982355297,,,
8626.0,94.7968292236328,-0.9671389108358144,,,
8641.0,113.024658203125,-0.9012913443133096,,,
8657.0,132.4903564453125,-0.826071878297218,,,
8672.0,151.36453247070312,-0.7478746663866782,,,
8688.0,164.61795043945312,-0.6724528742722682,,,
8704.0,166.2448272705078,-0.6048093511764515,,,
8719.0,153.50820922851562,-0.5489784785819485,,,
8735.0,129.7285614013672,-0.5077007983945074,,,
8751.0,103.3749008178711,-0.4822296157873106,,,
8766.0,83.67008209228516,-0.4725108112461379,,,
8782.0,76.78036499023438,-0.477715562398959,,,
8797.0,82.93052673339844,-0.4967888023634326,,,
8813.0,97.84564971923828,-0.5285881614831203,,,
8829.0,115.65538787841795,-0.5714522385157335,,,
8844.0,132.11300659179688,-0.6224947816707511,,,
8860.0,146.05337524414062,-0.6772315225260496,,,
8876.0,157.58343505859375,-0.7300396470704112,,,
8891.0,166.05044555664062,-0.7754467535413857,,,
8907.0,168.72994995117188,-0.8096651335367858,,,
8922.0,162.38723754882812,-0.831529109911869,,,
8938.0,145.37789916992188,-0.8422603006161656,,,
8954.0,119.90748596191406,-0.8441369365285806,,,
8969.0,92.83975219726562,-0.838780542311533,,,
8985.0,72.94703674316406,-0.8259977636030614,,,
9001.0,67.39110565185547,-0.8037852430176413,,,
9016.0,78.09088897705078,-0.7694239344831042,,,
9032.0,101.30477905273438,-0.7209660607721422,,,
9047.0,129.3066864013672,-0.6582116198363555,,,
9063.0,153.89990234375,-0.5825846036942631,,,
9079.0,170.3652801513672,-0.4959619369667388,,,
9094.0,178.59637451171875,-0.3991221129033562,,,
9110.0,182.4816436767578,-0.2907362010727838,,,
9126.0,186.47781372070312,-0.1675867161437407,,,
9141.0,193.5430145263672,-0.0260886540323899,,,
9157.0,202.7726593017578,0.1354911286127528,,,
9172.0,210.2667236328125,0.3151221364071967,,,
9188.0,210.6948089599609,0.5063290995916186,,,
9204.0,199.49264526367188,0.6991293581880388,,,
9219.0,174.94468688964844,0.8822528019529505,,,
9235.0,137.92092895507812,1.0457576365007637,,,
9251.0,92.11630249023438,1.1830438747768544,,,
9266.0,42.46034240722656,1.2916183242932344,,,
9282.0,-5.0677032470703125,1.3725562062871426,,,
9297.0,-44.20988464355469,1.4291104513278858,,,
9313.0,-69.61122131347656,1.4651160388892654,,,
9329.0,-79.2025146484375,1.4837173767218412,,,
9344.0,-76.76670837402344,1.4866792569295153,,,
9360.0,-71.55961608886719,1.4743139777732068,,,
9376.0,-75.92062377929688,1.4459440839937827,,,
9391.0,-99.41224670410156,1.4007695555142372,,,
9407.0,-143.64938354492188,1.3389331112072425,,,
9422.0,-200.2666015625,1.2624644806505765,,,
9438.0,-254.38540649414065,1.1757223747350345,,,
9454.0,-291.3529357910156,1.085052790091133,,,
9469.0,-302.55743408203125,0.9976630346433748,,,
9485.0,-288.6558837890625,0.9200511832516404,,,
9501.0,-257.1075439453125,0.8565374808909946,,,
9516.0,-218.0443725585937,0.8083870156245251,,,
9532.0,-178.9868927001953,0.7737221757442176,,,
9547.0,-144.6209259033203,0.748078198098404,,,
9563.0,-117.57138061523438,0.7252653592173187,,,
9579.0,-101.28897094726562,0.6982623340476634,,,
9594.0,-100.11288452148438,0.660089129098566,,,
9610.0,-116.3555908203125,0.6047877275169009,,,
9626.0,-147.61648559570312,0.5286030576608804,,,
9641.0,-184.81707763671875,0.431204259530535,,,
9657.0,-215.11505126953125,0.3164969847192028,,,
9672.0,-226.513916015625,0.1924949129678407,,,
9688.0,-213.93728637695312,0.069974079842345,,,
9704.0,-180.8783264160156,-0.0398629378176482,,,
9719.0,-136.76361083984375,-0.1280044721916992,,,
9735.0,-92.34637451171876,-0.1896426706615798,,,
9751.0,-54.5374755859375,-0.224935623175027,,,
9766.0,-25.25,-0.2384025508266199,,,
9782.0,-3.174530029296875,-0.2373665151461162,,,
9797.0,12.85455322265625,-0.2301192337601925,,,
9813.0,22.41839599609375,-0.2243803390054938,,,
9829.0,23.64947509765625,-0.2262831636486451,,,
9844.0,15.687530517578123,-0.2397835932147819,,,
9860.0,0.956756591796875,-0.2662597889328267,,,
9876.0,-15.306060791015623,-0.3041922064886231,,,
9891.0,-26.64453125,-0.3490598518292027,,,
9907.0,-27.95343017578125,-0.3937570064967835,,,
9922.0,-16.988250732421875,-0.429772881831941,,,
9938.0,5.86309814453125,-0.4490747724187163,,,
9954.0,37.628997802734375,-0.4462338862063672,,,
9969.0,73.84298706054688,-0.4200548430180501,,,
9985.0,109.11590576171876,-0.3740066776966417,,,
10001.0,138.31320190429688,-0.3151546865435356,,,
10016.0,158.13937377929688,-0.2519128766610888,,,
10032.0,168.89483642578125,-0.1914836445358067,,,
10047.0,173.88534545898438,-0.1380292321729475,,,
10063.0,177.78546142578125,-0.0923000806596996,,,
10079.0,183.44918823242188,-0.0527617984226734,,,
10094.0,190.09054565429688,-0.0175582472672849,,,
10110.0,193.5697631835937,0.0137094476800002,,,
10126.0,189.3343505859375,0.0392414451399822,,,
10141.0,174.97091674804688,0.0556122425621171,,,
10157.0,151.10650634765625,0.0592777397347838,,,
10173.0,120.8563232421875,0.0482373828927989,,,
10188.0,87.7738037109375,0.0230936075296375,,,
10204.0,53.91818237304688,-0.0128894614593665,,,
10219.0,20.147613525390625,-0.0546628107196221,,,
10235.0,-13.279083251953123,-0.0968002674328731,,,
10251.0,-45.72271728515625,-0.1349171791328327,,,
10266.0,-76.06787109375,-0.1666533315923632,,,
10282.0,-102.83798217773438,-0.1919454870476999,,,
10298.0,-124.63265991210938,-0.2125248970715163,,,
10313.0,-139.68023681640625,-0.2308068458746696,,,
10329.0,-146.46194458007812,-0.2485695629528422,,,
10344.0,-144.7000732421875,-0.2659665016828541,,,
10360.0,-136.40521240234375,-0.2813584655384413,,,
10376.0,-127.57574462890624,-0.292130409660163,,,
10391.0,-126.84283447265624,-0.2961711226808204,,,
10407.0,-142.34616088867188,-0.2932965938699677,,,
10423.0,-177.46127319335938,-0.2858580055106623,,,
10438.0,-226.8084716796875,-0.2781777567117489,,,
10454.0,-277.5290832519531,-0.2750995566070567,,,
10469.0,-314.46484375,-0.2804306475987818,,,
10485.0,-327.2341613769531,-0.2960731348493537,,,
10501.0,-315.28375244140625,-0.3221662985798755,,,
10516.0,-287.4656066894531,-0.3579052583067111,,,
10532.0,-256.9840087890625,-0.4023059100184701,,,
10548.0,-234.12893676757807,-0.4543197129651812,,,
10563.0,-222.5303955078125,-0.5122667851602202,,,
10579.0,-219.30044555664065,-0.5731504896409008,,,
10594.0,-219.1126403808593,-0.6326129766602632,,,
10610.0,-218.6184997558593,-0.6859306987678988,,,
10626.0,-217.834716796875,-0.7297538517238283,,,
10641.0,-218.9209899902344,-0.7637168680578469,,,
10657.0,-223.0008850097656,-0.7909712266792982,,,
10673.0,-228.3958435058593,-0.8171842039157678,,,
10688.0,-230.1256256103516,-0.8483253103851266,,,
10704.0,-222.76663208007807,-0.8881805968765454,,,
10719.0,-202.26632690429688,-0.9366626897166708,,,
10735.0,-167.22268676757812,-0.9895890251004584,,,
10751.0,-118.31512451171876,-1.039931719984559,,,
10766.0,-58.20875549316406,-1.079951730921295,,,
10782.0,8.823760986328125,-1.103367252385475,,,
10798.0,76.26066589355469,-1.106814936061218,,,
10813.0,136.14598083496094,-1.090213341634523,,,
10829.0,181.43263244628903,-1.0560460977098851,,,
10844.0,208.500732421875,-1.0079102580586747,,,
10860.0,220.00897216796875,-0.9488651491078632,,,
10876.0,225.0036163330078,-0.8801565071884697,,,
10891.0,236.398666381836,-0.8007713893360812,,,
10907.0,265.8921203613281,-0.7080002750485651,,,
10923.0,318.7102355957031,-0.5988001788131542,,,
10938.0,390.6370849609375,-0.4714107218896011,,,
10954.0,469.699951171875,-0.326555045830414,,,
10969.0,541.0184936523438,-0.1696773482427256,,,
10985.0,592.5169067382812,-0.026521272605201,,,
11001.0,618.6603393554688,0.1052011446850266,,,
11016.0,621.0135498046875,0.2286322652623313,,,
11032.0,604.7850341796875,0.3467630699073963,,,
11048.0,575.281494140625,0.4617026575469969,,,
11063.0,536.0128784179688,0.5745122567228408,,,
11079.0,489.2000732421875,0.6704249822449924,,,
11094.0,436.8377380371094,0.7447559954180636,,,
11110.0,382.1510620117188,0.7986937565946249,,,
11126.0,327.8950500488281,0.834360782662969,,,
11141.0,274.37213134765625,0.8537886818117251,,,
11157.0,218.33502197265625,0.8579597168084464,,,
11173.0,154.74525451660156,0.8465432031904084,,,
11188.0,81.26943969726562,0.8186700473232307,,,
11204.0,1.1157913208007812,0.7745018898299464,,,
11219.0,-75.98069763183594,0.7168140055744069,,,
11235.0,-137.40545654296875,0.6516689118941928,,,
11251.0,-173.00750732421875,0.5876244531643503,,,
11266.0,-180.20123291015625,0.5336114616909187,,,
11282.0,-164.83993530273438,0.4962709975769376,,,
11298.0,-138.57875061035156,0.4778353674498827,,,
11313.0,-114.13298034667967,0.4754461499283873,,,
11329.0,-100.85467529296876,0.4822323470663744,,,
11344.0,-102.6084442138672,0.4897758368194749,,,
11360.0,-118.00846862792967,0.4910480804325323,,,
11376.0,-142.49493408203125,0.482716425864767,,,
11391.0,-171.21450805664062,0.4659638312401443,,,
11407.0,-200.98092651367188,0.4455602319457298,,,
11423.0,-230.0037384033203,0.4276412845779113,,,
11438.0,-257.28619384765625,0.4171879134070505,,,
11454.0,-281.1319580078125,0.4163008540085951,,,
11469.0,-298.3558349609375,0.4239560624877357,,,
11485.0,-304.78399658203125,0.4371945563966173,,,
11501.0,-297.988037109375,0.4530156884699324,,,
11516.0,-278.28033447265625,0.4699644668574658,,,
11532.0,-249.3832550048828,0.4886662919966517,,,
11548.0,-217.17153930664065,0.511194863595957,,,
11563.0,-187.6429748535156,0.5397865821938798,,,
11579.0,-164.16416931152344,0.575689637081114,,,
11594.0,-147.9086456298828,0.6187418618251053,,,
11610.0,-138.29330444335938,0.6677706717954508,,,
11626.0,-133.8031768798828,0.721416545770784,,,
11641.0,-132.77365112304688,0.7787699434841485,,,
11657.0,-133.56051635742188,0.8393644246138865,,,
11673.0,-134.644287109375,0.9024671049995692,,,
11688.0,-134.89566040039062,0.9660252539332808,,,
11704.0,-134.90728759765625,1.0258599888975886,,,
11719.0,-137.18197631835938,1.075647107062515,,,
11735.0,-143.99014282226562,1.1079195110838365,,,
11751.0,-155.55072021484375,1.1158901539557469,,,
11766.0,-168.02708435058594,1.0954996957060716,,,
11782.0,-174.91744995117188,1.0469009631128363,,,
11798.0,-170.2195281982422,0.9747019511779108,,,
11813.0,-151.9591522216797,0.8866931784425569,,,
11829.0,-123.94735717773438,0.7913546503589765,,,
11844.0,-95.54963684082033,0.6949540501120577,,,
11860.0,-76.63975524902344,0.5992865611313754,,,
11876.0,-72.99174499511719,0.5009418324566299,,,
11891.0,-83.62600708007812,0.3924554277333684,,,
11907.0,-101.06510925292967,0.265007717101099,,,
11923.0,-114.78233337402344,0.1117457341662171,,,
11938.0,-114.97273254394533,-0.0694401931146362,,,
11954.0,-96.8031768798828,-0.2746536854943586,,,
11969.0,-60.811370849609375,-0.4927316437471596,,,
11985.0,-11.5726318359375,-0.6913648935743039,,,
12001.0,43.93553924560547,-0.8674087875028308,,,
12016.0,97.71292877197266,-1.0214743854844912,,,
12032.0,142.14923095703125,-1.1579766839106256,,,
12048.0,170.57955932617188,-1.2843148285241288,,,
12063.0,178.30892944335938,-1.4092945418789085,,,
12079.0,164.61415100097656,-1.525877557499806,,,
12094.0,134.58827209472656,-1.6343204640593456,,,
12110.0,98.40867614746094,-1.7359355365940572,,,
12126.0,68.36268615722656,-1.8277557198864196,,,
12141.0,54.25750732421875,-1.9030493947608105,,,
12157.0,58.84127807617188,-1.9533425838329688,,,
12173.0,76.45984649658203,-1.9714593645734797,,,
12188.0,95.12049865722656,-1.9546561595630565,,,
12204.0,101.11886596679688,-1.906726872507804,,,
12219.0,84.71141815185547,-1.8381549373179076,,,
12235.0,43.98789978027344,-1.7640015056323315,,,
12251.0,-15.2552490234375,-1.7000576400639635,,,
12266.0,-80.54642486572266,-1.658511007801914,,,
12282.0,-137.2312774658203,-1.6446425469620818,,,
12298.0,-173.1975860595703,-1.655715576101554,,,
12313.0,-182.479721069336,-1.6823757106886903,,,
12329.0,-166.43150329589844,-1.711913445760025,,,
12344.0,-133.18263244628906,-1.7320831638592864,,,
12360.0,-94.39248657226562,-1.7341019062110057,,,
12376.0,-60.48455810546875,-1.7139602753132868,,,
12391.0,-36.89663696289063,-1.6719803087535747,,,
12407.0,-23.81414794921875,-1.6112437769708203,,,
12423.0,-18.133224487304688,-1.535783745656633,,,
12438.0,-15.277511596679688,-1.4492355283184604,,,
12454.0,-11.593368530273438,-1.354186189492543,,,
12469.0,-3.91448974609375,-1.2520515547669104,,,
12485.0,10.931854248046877,-1.14316195598548,,,
12501.0,37.08221435546875,-1.026860415285154,,,
12516.0,77.88446044921875,-0.901636432082628,,,
12532.0,134.0406494140625,-0.7654287317402587,,,
12548.0,201.73712158203125,-0.6161492115491309,,,
12563.0,272.9122314453125,-0.4522991907410538,,,
12579.0,338.2305908203125,-0.273444396397149,,,
12594.0,390.6746826171875,-0.0803955115378895,,,
12610.0,428.0128173828125,0.1248506153214348,,,
12626.0,451.9827270507813,0.3391992368338173,,,
12641.0,465.3352966308594,0.5584149572906861,,,
12657.0,468.2063903808594,0.7770212416432727,,,
12673.0,457.3721923828125,0.9884411312074338,,,
12688.0,428.4977722167969,1.1856757076177384,,,
12704.0,379.0913391113281,1.362523053357742,,,
12719.0,312.425537109375,1.5149257880328104,,,
12735.0,237.52658081054688,1.6418006284449926,,,
12751.0,165.70712280273438,1.7448596280358772,,,
12766.0,106.74252319335938,1.8274291140704728,,,
12782.0,65.39743041992188,1.8928137481137723,,,
12798.0,39.989501953125,1.942996934392252,,,
12813.0,24.098388671875,1.978256398898793,,,
12829.0,10.018280029296877,1.9977366519410644,,,
12845.0,-8.73382568359375,2.000492895052821,,,
12860.0,-35.86431884765625,1.9863205663212429,,,
12876.0,-72.5909423828125,1.955904633425697,,,
12891.0,-117.29519653320312,1.9102872120185328,,,
12907.0,-166.51748657226562,1.8500551045629492,,,
12923.0,-215.0777587890625,1.774763299794244,,,
12938.0,-257.3656005859375,1.6829178578987976,,,
12954.0,-288.4105224609375,1.5725117404376423,,,
12970.0,-304.9126892089844,1.4418615392017275,,,
12985.0,-307.0321044921875,1.2904513111640294,,,
13001.0,-297.5982360839844,1.1196045795382208,,,
13016.0,-281.1831359863281,0.9329289088450826,,,
13032.0,-261.6932678222656,0.7364955512801057,,,
13048.0,-240.93359375,0.5386411638941129,,,
13063.0,-218.42697143554688,0.3492283991358623,,,
13079.0,-191.712890625,0.1782986807342075,,,
13095.0,-157.65029907226562,0.0343075766148149,,,
13110.0,-114.06350708007812,-0.0775749738912868,,,
13126.0,-61.278350830078125,-0.1564828461765588,,,
13141.0,-1.955810546875,-0.2057255439516189,,,
13157.0,58.006744384765625,-0.2314593979166894,,,
13173.0,111.1663818359375,-0.2405940872399294,,,
13188.0,150.04205322265625,-0.2387069326566922,,,
13204.0,169.23019409179688,-0.2287552309029599,,,
13220.0,167.01608276367188,-0.2110583846464528,,,
13235.0,145.81729125976562,-0.1844982435139099,,,
13251.0,111.166748046875,-0.1483747032851477,,,
13266.0,69.3773193359375,-0.1040675060761036,,,
13282.0,25.98675537109375,-0.0557257975327418,,,
13298.0,-15.0565185546875,-0.0096283788443213,,,
13313.0,-50.66851806640625,0.0275330655622934,,,
13329.0,-77.62774658203125,0.0506729574223368,,,
13345.0,-93.28643798828124,0.0576919459776685,,,
13360.0,-96.66455078125,0.0495843630862868,,,
13376.0,-90.71200561523438,0.029289657248863,,,
13391.0,-82.29583740234375,-4.644933648643051e-05,,,
13407.0,-80.21328735351562,-0.0364644923058622,,,
13423.0,-90.16806030273438,-0.0795778178720536,,,
13438.0,-111.70941162109376,-0.1299499214561603,,,
13454.0,-137.58367919921875,-0.1880817300328898,,,
13470.0,-157.26992797851562,-0.2538226154485946,,,
13485.0,-162.32864379882812,-0.3266696111107879,,,
13501.0,-149.9566650390625,-0.4067621085863527,,,
13516.0,-124.55026245117188,-0.4958441645427969,,,
13532.0,-94.668701171875,-0.5973956596191026,,,
13548.0,-68.96337890625,-0.7155676109052608,,,
13563.0,-51.346771240234375,-0.8532250873639294,,,
13579.0,-39.67495727539063,-1.0099083071836228,,,
13595.0,-26.617919921875,-1.1805986377979365,,,
13610.0,-2.095855712890625,-1.3558207935163764,,,
13626.0,41.82443237304688,-1.5230540150569831,,,
13641.0,108.0537109375,-1.6689526466085232,,,
13657.0,191.76412963867188,-1.781673970812325,,,
13673.0,281.6463623046875,-1.852692830778153,,,
13688.0,362.7000732421875,-1.87774211218175,,,
13704.0,422.7608337402344,-1.856820257448148,,,
13720.0,456.493408203125,-1.7934503846310952,,,
13735.0,467.2691955566406,-1.6935097680235032,,,
13751.0,464.6033630371094,-1.5639644847453351,,,
13766.0,459.1760559082031,-1.4117635503244572,,,
13782.0,457.612548828125,-1.2430188917673055,,,
13798.0,460.5760192871094,-1.0624879192810075,,,
13813.0,464.87646484375,-0.8733334780918857,,,
13829.0,465.7353210449219,-0.6771603323256211,,,
13845.0,459.8692626953125,-0.4743670827189634,,,
13860.0,445.6196899414063,-0.2648427366610111,,,
13876.0,421.8741455078125,-0.0489446585816214,,,
13891.0,387.0640258789063,0.1714541577129912,,,
13907.0,339.0791320800781,0.3921867191102028,,,
13923.0,276.1842041015625,0.606636141385809,,,
13938.0,198.5868682861328,0.8064159858101169,,,
13954.0,109.9810791015625,0.9828357513585656,,,
13970.0,17.24981689453125,1.1288058488086063,,,
13985.0,-70.96830749511719,1.2406286691186377,,,
14001.0,-146.11131286621094,1.319087840506178,,,
14016.0,-201.3569183349609,1.3694089136306484,,,
14032.0,-232.5079345703125,1.3999762854340534,,,
14048.0,-239.0345764160156,1.4200612950996685,,,
14063.0,-224.5547637939453,1.4371384395525777,,,
14079.0,-196.3685302734375,1.4545475181218863,,,
14095.0,-164.57693481445312,1.4702378340356614,,,
14110.0,-140.20053100585938,1.477087575186441,,,
14126.0,-132.23385620117188,1.464862521703982,,,
14141.0,-145.20733642578125,1.423362375868521,,,
14157.0,-177.5189666748047,1.3458569240762588,,,
14173.0,-220.7987365722656,1.2317167250831316,,,
14188.0,-262.5586853027344,1.0873250817783977,,,
14204.0,-290.5172119140625,0.9249171691800052,,,
14220.0,-296.9855651855469,0.7597451788094719,,,
14235.0,-281.87469482421875,0.6065982266781172,,,
14251.0,-252.5705718994141,0.4769060753517415,,,
14266.0,-219.2342987060547,0.3773072221748274,,,
14282.0,-189.20556640625,0.3098323435447995,,,
14298.0,-164.49310302734375,0.2731305082152031,,,
14313.0,-141.26451110839844,0.2638340715937159,,,
14329.0,-114.91029357910156,0.2773668723740119,,,
14345.0,-84.76016235351562,0.308067843554291,,,
14360.0,-56.49253082275391,0.3490398862876808,,,
14376.0,-40.70088195800781,0.3923045967940207,,,
14391.0,-48.01847839355469,0.4295783738684182,,,
14407.0,-83.55302429199219,0.4535107691275504,,,
14423.0,-143.8119659423828,0.4588869278176304,,,
14438.0,-217.72341918945312,0.4433103073794969,,,
14454.0,-290.47637939453125,0.4072011991254622,,,
14470.0,-348.1907043457031,0.3533175220269576,,,
14485.0,-381.4617309570313,0.2861671936780749,,,
14501.0,-386.9996948242188,0.2115512932028375,,,
14516.0,-366.5601806640625,0.1361854060942451,,,
14532.0,-325.5067749023437,0.0671310193654784,,,
14548.0,-270.8267822265625,0.0108028925848021,,,
14563.0,-210.2161407470703,-0.0284062311573948,,,
14579.0,-150.4003143310547,-0.0495029578175926,,,
14595.0,-96.2070541381836,-0.0557119655341829,,,
14610.0,-49.53544616699219,-0.0542807247268731,,,
14626.0,-9.944854736328123,-0.0551666634081062,,,
14641.0,24.00727844238281,-0.068932299718835,,,
14657.0,52.81791687011719,-0.104478999210553,,,
14673.0,74.77215576171875,-0.1672993090643199,,,
14688.0,86.6719970703125,-0.2587128003211901,,,
14704.0,85.83897399902344,-0.3761780820745172,,,
14720.0,73.12975311279297,-0.5144101503985974,,,
14735.0,53.58780670166016,-0.6668241289191844,,,
14751.0,35.176544189453125,-0.8268355398560028,,,
14766.0,25.713043212890625,-0.9887281375217768,,,
14782.0,29.84858703613281,-1.1480315452205974,,,
14798.0,47.17169189453125,-1.3015068540270387,,,
14813.0,73.17431640625,-1.4468656191415614,,,
14829.0,101.75347900390624,-1.5822930867973548,,,
14845.0,128.39059448242188,-1.7058099608843322,,,
14860.0,152.01611328125,-1.814555689194205,,,
14876.0,174.63223266601562,-1.9041879617919364,,,
14891.0,199.7684936523437,-1.968672099775604,,,
14907.0,230.2833709716797,-2.0006854660884423,,,
14923.0,266.467529296875,-1.9926698986672728,,,
14938.0,305.3868408203125,-1.938315556316592,,,
14954.0,341.782958984375,-1.8340896899318848,,,
14970.0,370.6357421875,-1.6804267714615673,,,
14985.0,389.07757568359375,-1.482348713148568,,,
15001.0,396.2311401367188,-1.2494594626511255,,,
15016.0,392.707275390625,-0.9953294289054152,,,
15032.0,378.1507568359375,-0.7362352667229983,,,
15048.0,350.18963623046875,-0.4891723704009644,,,
15063.0,305.9947814941406,-0.2691810610175053,,,
15079.0,245.8238525390625,-0.0863834665752979,,,
15095.0,175.444580078125,0.0564326669138627,,,
15110.0,106.2960968017578,0.1646322964816781,,,
15126.0,50.95700073242188,0.2501875208899812,,,
15141.0,17.39996337890625,0.3278151422611604,,,
15157.0,3.9439697265625,0.4098799991155401,,,
15173.0,-0.9226531982421876,0.5018849225779106,,,
15188.0,-13.608779907226562,0.6003529730457845,,,
15204.0,-47.73614501953125,0.6940312573622713,,,
15220.0,-107.80284118652344,0.7679604742035852,,,
15235.0,-186.8297882080078,0.8087224463635933,,,
15251.0,-270.0047607421875,0.8087249547519814,,,
15266.0,-341.1708374023437,0.7679467738056568,,,
15282.0,-389.13720703125,0.6928451095747027,,,
15298.0,-410.3689575195313,0.5934399503602172,,,
15313.0,-407.994140625,0.4802554473129652,,,
15329.0,-387.7873229980469,0.3625246225362832,,,
15345.0,-354.4618225097656,0.2480961138466266,,,
15360.0,-310.7984619140625,0.1444343643948896,,,
15376.0,-258.8301086425781,0.059577153873782,,,
15391.0,-202.2864990234375,0.0021394944676026,,,
15407.0,-146.93759155273438,-0.019806355154289,,,
15423.0,-98.8729248046875,-0.000403412135958,,,
15438.0,-61.414154052734375,0.0626306471880251,,,
15454.0,-33.000762939453125,0.1675562146351101,,,
15470.0,-7.810333251953125,0.3090977666639669,,,
15485.0,21.403228759765625,0.4794067079707894,,,
15501.0,58.795501708984375,0.6689587195867072,,,
15516.0,102.2198486328125,0.8671453264041942,,,
15532.0,143.119873046875,1.0627391049247252,,,
15548.0,170.09671020507812,1.2446150859434764,,,
15563.0,174.44818115234375,1.4029356088034084,,,
15579.0,154.9005126953125,1.5305740727217825,,,
15595.0,118.70510864257812,1.6241836583746003,,,
15610.0,77.989990234375,1.6843035710983034,,,
15626.0,43.9332275390625,1.714300010179642,,,
15642.0,20.71533203125,1.7185418679685038,,,
15657.0,3.68585205078125,1.7006444544530372,,,
15673.0,-17.886688232421875,1.66259618348228,,,
15688.0,-53.7288818359375,1.605100568249245,,,
15704.0,-106.035888671875,1.528792529393014,,,
15720.0,-167.685302734375,1.4355174267290347,,,
15735.0,-224.8643798828125,1.3288644311404445,,,
15751.0,-263.60821533203125,1.213610019778273,,,
15767.0,-276.97088623046875,1.0943713148484029,,,
15782.0,-267.931640625,0.9742157122948673,,,
15798.0,-246.34469604492188,0.8539745503297981,,,
15813.0,-223.51632690429688,0.7325884551282298,,,
15829.0,-206.51626586914065,0.6082392992966421,,,
15845.0,-195.12307739257807,0.4796358035395815,,,
15860.0,-183.9266662597656,0.3468176404970398,,,
15876.0,-166.21575927734375,0.2111847492148404,,,
15892.0,-137.65875244140625,0.0749083473220033,,,
15907.0,-98.38079833984376,-0.0598324971341498,,,
15923.0,-52.17007446289063,-0.1913597313018333,,,
15938.0,-3.99603271484375,-0.3185772916274599,,,
15954.0,42.184967041015625,-0.4407437799769189,,,
15970.0,84.07867431640625,-0.5571886809871108,,,
15985.0,120.79010009765624,-0.6671392058088185,,,
16001.0,151.47076416015625,-0.769635771962159,,,
16017.0,174.29556274414062,-0.8634049781691816,,,
16032.0,187.1908569335937,-0.9466381667506364,,,
16048.0,188.50636291503903,-1.0168328273754477,,,
16063.0,179.0450439453125,-1.0710022070178318,,,
16079.0,162.42198181152344,-1.106467134041917,,,
16095.0,143.62258911132812,-1.1221011067880835,,,
16110.0,127.0356903076172,-1.1195006503101046,,,
16126.0,113.96409606933594,-1.103385281112677,,,
16142.0,101.89466857910156,-1.0807737443192102,,,
16157.0,86.0106201171875,-1.0590600295090016,,,
16173.0,60.71539306640625,-1.043714980240579,,,
16188.0,22.697998046875,-1.0366084641576645,,,
16204.0,-27.793853759765625,-1.0357029747005275,,,
16220.0,-86.4638671875,-1.0362302433034587,,,
16235.0,-146.99588012695312,-1.0327774445738769,,,
16251.0,-202.2003631591797,-1.021349500633496,,,
16267.0,-246.25816345214844,-1.000608611534976,,,
16282.0,-275.8525390625,-0.9719978126898547,,,
16298.0,-289.97662353515625,-0.9390081568989104,,,
16313.0,-290.1016845703125,-0.906136182767374,,,
16329.0,-279.3287353515625,-0.8779883293576088,,,
16345.0,-261.34814453125,-0.8586623264011661,,,
16360.0,-239.4574279785156,-0.8512477726617887,,,
16376.0,-215.709716796875,-0.8572503963062679,,,
16392.0,-189.96697998046875,-0.8759612343143315,,,
16407.0,-160.77035522460938,-0.9040693834018196,,,
16423.0,-125.18572998046876,-0.9359100276561256,,,
16438.0,-80.01441955566406,-0.9645291621876272,,,
16454.0,-23.279525756835938,-0.9833274835768464,,,
16470.0,44.6269416809082,-0.9876718581443008,,,
16485.0,120.27584838867188,-0.9757863240265148,,,
16501.0,197.8840484619141,-0.9485424681242678,,,
16517.0,270.3829650878906,-0.90831476023315,,,
16532.0,330.7742004394531,-0.857546147736924,,,
16548.0,373.7442932128906,-0.7977986677216228,,,
16563.0,396.8634948730469,-0.7297517543748959,,,
16579.0,400.3916015625,-0.6540246692776784,,,
16595.0,386.9390258789063,-0.5721789850107697,,,
16610.0,361.2550659179688,-0.4871182449560124,,,
16626.0,328.5826110839844,-0.4024435786904256,,,
16642.0,293.9035339355469,-0.3209606534507659,,,
16657.0,260.3340759277344,-0.2430990046588355,,,
16673.0,228.9636383056641,-0.1661652749061751,,,
16688.0,199.96847534179688,-0.084998520220308,,,
16704.0,173.5896759033203,0.0060920131755554,,,
16720.0,150.7096710205078,0.110883997839046,,,
16735.0,132.29563903808594,0.2293549211559717,,,
16751.0,118.59977722167967,0.3571821507731567,,,
16767.0,107.48432159423828,0.4868479583842513,,,
16782.0,95.07469940185548,0.6098810823152466,,,
16798.0,77.45508575439453,0.7193268228304612,,,
16813.0,53.1235466003418,0.8115123629108044,,,
16829.0,25.09215545654297,0.8865228391348288,,,
16845.0,0.3841390609741211,0.947337766414928,,,
16860.0,-13.093528747558594,0.9980718826406626,,,
16876.0,-10.97392463684082,1.0420511770332948,,,
16892.0,5.257749557495117,1.080460998274039,,,
16907.0,28.135358810424805,1.1120472931427108,,,
16923.0,48.54621887207031,1.1339273608223603,,,
16938.0,60.36271286010742,1.1431229820510729,,,
16954.0,64.3541030883789,1.1381396068643772,,,
16970.0,67.09989929199219,1.1199131649842482,,,
16985.0,75.81901550292969,1.0917463800497174,,,
17001.0,93.53560638427734,1.0583215506158674,,,
17017.0,116.64095306396484,1.0242716461841443,,,
17032.0,136.37327575683594,0.9929155746282954,,,
17048.0,143.83868408203125,0.9655736151806132,,,
17063.0,135.24105834960938,0.94151938495196,,,
17079.0,112.54798889160156,0.9183344263148532,,,
17095.0,81.5244140625,0.8923851139736858,,,
17110.0,46.828575134277344,0.859330251124051,,,
17126.0,8.131271362304688,0.81480577680652,,,
17142.0,-37.95257568359375,0.7554903928641165,,,
17157.0,-94.09764099121094,0.6805308364165614,,,
17173.0,-157.67698669433594,0.5929148388693393,,,
17188.0,-219.12649536132807,0.5000966421830817,,,
17204.0,-264.5556640625,0.4132552052593882,,,
17220.0,-282.8558349609375,0.3450494554861975,,,
17235.0,-270.84100341796875,0.3064208296979475,,,
17251.0,-235.30548095703125,0.3035241885237152,,,
17267.0,-190.05734252929688,0.3359441436723793,,,
17282.0,-150.37091064453125,0.3969044599053631,,,
17298.0,-126.82403564453124,0.4754005489939459,,,
17313.0,-121.88102722167967,0.5594359940367377,,,
17329.0,-130.37767028808594,0.6391561474406158,,,
17345.0,-143.2827606201172,0.7087935317472603,,,
17360.0,-152.1322021484375,0.7668776941647368,,,
17376.0,-152.74468994140625,0.8148486974622196,,,
17392.0,-145.78807067871094,0.8547541059651197,,,
17407.0,-135.6696014404297,0.8869245728263833,,,
17423.0,-127.31582641601562,0.908408385316018,,,
17438.0,-125.51026916503906,0.9126254081382924,,,
17454.0,-134.0065460205078,0.8903252387348004,,,
17470.0,-155.02537536621094,0.8315981113995307,,,
17485.0,-188.57110595703125,0.7284258788851486,,,
17501.0,-231.0813751220703,0.5770961290344757,,,
17517.0,-275.47613525390625,0.3797805399109058,,,
17532.0,-311.7757568359375,0.1447558018749905,,,
17548.0,-331.0417175292969,-0.1148691114395765,,,
17563.0,-328.4393005371094,-0.3835593975024221,,,
17579.0,-305.3879089355469,-0.6461255764422968,,,
17595.0,-268.41717529296875,-0.8899725805004506,,,
17610.0,-225.021484375,-1.106197415201967,,,
17626.0,-180.02464294433594,-1.2894302598076337,,,
17642.0,-133.23876953125,-1.436845856862758,,,
17657.0,-81.68502807617188,-1.5470423374489517,,,
17673.0,-22.866180419921875,-1.6193717076606622,,,
17688.0,42.41465759277344,-1.6539094265198306,,,
17704.0,109.9372100830078,-1.6518251596712712,,,
17720.0,173.91001892089844,-1.6157115628233396,,,
17735.0,230.0177154541016,-1.5495329528914263,,,
17751.0,275.8565673828125,-1.4581616239909174,,,
17767.0,310.45721435546875,-1.3467562143662617,,,
17782.0,332.80181884765625,-1.2203207449593738,,,
17798.0,341.24346923828125,-1.0836275594598817,,,
17813.0,334.4930419921875,-0.9414116748252068,,,
17829.0,313.7364196777344,-0.7985394149715347,,,
17845.0,283.62994384765625,-0.6598628198859945,,,
17860.0,251.1224365234375,-0.5296997653156523,,,
17876.0,223.04736328125,-0.4111916248647602,,,
17892.0,203.0390472412109,-0.3059799734426094,,,
17907.0,189.72784423828125,-0.2145556858491331,,,
17923.0,177.57870483398438,-0.1372664585256915,,,
17938.0,159.39691162109375,-0.0755030878997427,,,
17954.0,129.5509033203125,-0.0323070858851939,,,
17970.0,86.62242126464844,-0.0117849728647661,,,
17985.0,34.83409881591797,-0.0172911148132711,,,
18001.0,-16.318870544433594,-0.0490833048496428,,,
18017.0,-55.24485778808594,-0.1026310810175474,,,
18032.0,-72.23295593261719,-0.1686232180348628,,,
18048.0,-63.40298843383789,-0.234961536600273,,,
18063.0,-33.261592864990234,-0.2900105751814831,,,
18079.0,6.832344055175781,-0.3256647644611743,,,
18095.0,42.55671691894531,-0.3388309258748118,,,
18110.0,62.411399841308594,-0.3307249137196464,,,
18126.0,61.40254211425781,-0.304517507163469,,,
18142.0,43.40071105957031,-0.262700246231924,,,
18157.0,18.153499603271484,-0.2056126522817096,,,
18173.0,-2.943603515625,-0.131860262762229,,,
18188.0,-11.336593627929688,-0.0402837745685678,,,
18204.0,-4.522912979125977,0.0676853569539867,,,
18220.0,13.480232238769531,0.1866049143440035,,,
18235.0,33.72772979736328,0.3073251319500448,,,
18251.0,45.88784408569336,0.4189205592556637,,,
18267.0,41.09902191162109,0.5114038130652899,,,
18282.0,15.22563934326172,0.5780943613411677,,,
18298.0,-29.33511734008789,0.6167692721575454,,,
18314.0,-84.52312469482422,0.629319071387682,,,
18329.0,-139.90074157714844,0.6202637707645773,,,
18345.0,-185.8446807861328,0.5948844651111386,,,
18360.0,-217.155029296875,0.5577676573684223,,,
18376.0,-233.9228973388672,0.5122761211772732,,,
18392.0,-239.3238220214844,0.4610022803892558,,,
18407.0,-236.3747100830078,0.4068245244003987,,,
18423.0,-226.14767456054688,0.3539424001582514,,,
18439.0,-207.760986328125,0.3082956687807678,,,
18454.0,-180.6514434814453,0.2770478160240047,,,
18470.0,-146.74246215820312,0.2672170415561415,,,
18485.0,-111.01663208007812,0.2839002877860564,,,
18501.0,-80.0162124633789,0.3287088091326241,,,
18517.0,-58.84489059448242,0.3989492161849274,,,
18532.0,-48.74897766113281,0.4877906219018278,,,
18548.0,-47.73505401611328,0.5853013021972463,,,
18564.0,-52.969032287597656,0.6799837887670143,,,
18579.0,-63.99690246582031,0.7603831796355313,,,
18595.0,-83.1663818359375,0.8164668418618334,,,
18610.0,-113.07538604736328,0.8406553665866301,,,
18626.0,-153.046875,0.8284946829512284,,,
18642.0,-196.56539916992188,0.7789474587211029,,,
18657.0,-232.5401306152344,0.6942118939856899,,,
18673.0,-250.17266845703125,0.5789747549339461,,,
18689.0,-244.4700622558593,0.4391566309705161,,,
18704.0,-219.08795166015625,0.2804653819202563,,,
18720.0,-184.0648651123047,0.1072733653278014,,,
18735.0,-151.03302001953125,-0.0777004132594567,,,
18751.0,-127.796875,-0.2727432275144244,,,
18767.0,-115.56266784667967,-0.4758521914001692,,,
18782.0,-110.01243591308594,-0.6834765868247463,,,
18798.0,-104.50498962402344,-0.8900247006541278,,,
18814.0,-93.5082550048828,-1.0885036549061111,,,
18829.0,-75.16514587402344,-1.2720707119773156,,,
18845.0,-50.81913757324219,-1.4357568175378934,,,
18860.0,-23.393585205078125,-1.577460388470897,,,
18876.0,4.660888671875,-1.697606189725711,,,
18892.0,33.226837158203125,-1.797491064629836,,,
18907.0,64.4385986328125,-1.876999559318508,,,
18923.0,102.68087768554688,-1.9327517372618008,,,
18939.0,152.64614868164062,-1.957652905623888,,,
18954.0,217.1277770996093,-1.9422716358643783,,,
18970.0,294.87872314453125,-1.877701486930218,,,
18985.0,379.9024353027344,-1.7588943976079712,,,
19001.0,463.3847961425781,-1.5871871040814272,,,
19017.0,536.1934814453125,-1.371005451299071,,,
19032.0,592.3677978515625,-1.1471499321391618,,,
19048.0,629.3626098632812,-0.9262303674894118,,,
19064.0,648.148681640625,-0.7156336947605019,,,
19079.0,650.447021484375,-0.5188183659837914,,,
19095.0,637.394287109375,-0.3344751197611052,,,
19110.0,610.328369140625,-0.1573638776711658,,,
19126.0,571.499267578125,0.0194990810554747,,,
19142.0,525.2037963867188,0.198835578493655,,,
19157.0,477.3312683105469,0.3692269134894099,,,
19173.0,433.432861328125,0.5310185382164292,,,
19189.0,395.7221984863281,0.681401862084987,,,
19204.0,361.28509521484375,0.8150557880148509,,,
19220.0,322.8149719238281,0.9256692968773744,,,
19235.0,272.3803405761719,1.0079237427186638,,,
19251.0,205.23794555664065,1.0593665824879972,,,
19267.0,123.28988647460938,1.0815802618375097,,,
19282.0,34.66510009765625,1.080215175764734,,,
19298.0,-49.08248901367188,1.0638179980030231,,,
19314.0,-117.25454711914062,1.0418291156670445,,,
19329.0,-163.74612426757812,1.0224460893081022,,,
19345.0,-188.38775634765625,1.0110852354453497,,,
19360.0,-196.25299072265625,1.0098899328595732,,,
19376.0,-194.3760223388672,1.0182683529227503,,,
19392.0,-187.9651794433593,1.0340272764316472,,,
19407.0,-178.8462371826172,1.0544990764715314,,,
19423.0,-166.18626403808594,1.0771868866410936,,,
19439.0,-149.06951904296875,1.099769186295979,,,
19454.0,-129.16891479492188,1.1196247587293626,,,
19470.0,-111.93635559082033,1.1332196726352275,,,
19485.0,-105.54405212402344,1.1357077751782272,,,
19501.0,-118.1337432861328,1.120995437742332,,,
19517.0,-155.24073791503906,1.0823854921031577,,,
19532.0,-216.9637908935547,1.0137709434686764,,,
19548.0,-298.1610717773437,0.9111774613600472,,,
19564.0,-389.7276611328125,0.774255041476782,,,
19579.0,-480.3751831054688,0.6177559246819195,,,
19595.0,-559.6744384765625,0.4720518756189265,,,
19610.0,-619.8102416992188,0.3408740853652635,,,
19626.0,-656.9132690429688,0.2263814955167395,,,
19642.0,-670.714111328125,0.1280706404598006,,,
19657.0,-663.9146118164062,0.0422613358547548,,,
19673.0,-640.31201171875,-0.0373688116202122,,,
19689.0,-604.086181640625,-0.1182104242078868,,,
19704.0,-558.7901000976562,-0.2066704022422187,,,
19720.0,-505.72259521484375,-0.3064958239082191,,,
19735.0,-444.1216430664063,-0.4153184207562773,,,
19751.0,-371.4973754882813,-0.5030310038502485,,,
19767.0,-285.196533203125,-0.5612155588620696,,,
19782.0,-184.9844970703125,-0.5825154162035623,,,
19798.0,-74.35316467285156,-0.5628466699576219,,,
19814.0,39.35234069824219,-0.5024365691195841,,,
19829.0,146.97593688964844,-0.4054192679246872,,,
19845.0,240.7831115722656,-0.278348295644594,,,
19860.0,318.5526123046875,-0.1284111755694122,,,
19876.0,381.6519165039063,0.037826212156149,,,
19892.0,434.4613037109375,0.2146653500597431,,,
19907.0,481.4195556640625,0.3965931748620757,,,
19923.0,523.7681274414062,0.5746422484164945,,,
19939.0,559.3153686523438,0.7311626584062035,,,
19954.0,584.3199462890625,0.8610095395454461,,,
19970.0,596.2608032226562,0.959683764049536,,,
19985.0,595.34326171875,1.0246427256738455,,,
20001.0,584.8421630859375,1.056191221440216,,,
20017.0,568.2591552734375,1.0576666172691276,,,
20032.0,547.293212890625,1.0576666172691276,,,
20048.0,520.9498901367188,1.0534926431058584,,,
20064.0,486.5796508789063,1.033673310979233,,,
20079.0,441.6904296875,0.9946586388395297,,,
20095.0,385.35638427734375,0.9327026571795806,,,
20110.0,322.1075439453125,0.84430858754807,,,
20126.0,253.6099395751953,0.7267383203422602,,,
20142.0,181.7759704589844,0.581784862970435,,,
20157.0,108.93128967285156,0.4238117077625137,,,
20173.0,38.59379577636719,0.2531156542213217,,,
20189.0,-25.217529296875,0.0713886967998527,,,
20204.0,-79.34422302246094,-0.1174928453254605,,,
20220.0,-122.74163818359376,-0.3073820371585116,,,
20235.0,-157.3866729736328,-0.4907480353099178,,,
20251.0,-187.02749633789065,-0.6603736494113445,,,
20267.0,-216.84727478027344,-0.8112825489461765,,,
20282.0,-250.04547119140625,-0.9421450195546616,,,
20298.0,-287.1293334960937,-1.055594326713684,,,
20314.0,-325.6873779296875,-1.157333021568354,,,
20329.0,-362.08990478515625,-1.2543959996870442,,,
20345.0,-393.3412170410156,-1.3532353941642807,,,
20360.0,-417.5749816894531,-1.452517433668956,,,
20376.0,-433.8482360839844,-1.5521159704062175,,,
20392.0,-441.3846435546875,-1.6553819438246111,,,
20407.0,-440.52288818359375,-1.7644990096194306,,,
20423.0,-428.9520263671875,-1.8810372254527077,,,
20439.0,-404.4920349121094,-2.006012052582576,,,
20454.0,-366.9107666015625,-2.1237689738129544,,,
20470.0,-318.49871826171875,-2.228389787385736,,,
20485.0,-263.4649963378906,-2.3126712770652365,,,
20501.0,-206.4349670410156,-2.36815194273575,,,
20517.0,-150.587158203125,-2.3855582807348523,,,
20532.0,-97.0515594482422,-2.355640761250514,,,
20548.0,-44.08468627929688,-2.2702667255036766,,,
20564.0,12.268695831298828,-2.1235824065409976,,,
20579.0,75.54693603515625,-1.9236277760326217,,,
20595.0,146.971435546875,-1.6937720784390906,,,
20610.0,224.2544860839844,-1.4321775434745516,,,
20626.0,301.93170166015625,-1.1389542607262275,,,
20642.0,373.2503967285156,-0.8166823612741481,,,
20657.0,432.811767578125,-0.47015986969598,,,
20673.0,475.3122253417969,-0.1054186784618572,,,
20689.0,500.8041076660156,0.2716484325809743,,,
20704.0,514.1168212890625,0.6565303122379436,,,
20720.0,522.3138427734375,1.0467333098987572,,,
20735.0,531.4221801757812,1.438736913108809,,,
20751.0,543.6458129882812,1.8006303245562212,,,
20767.0,556.8165893554688,2.126368035987781,,,
20782.0,565.6326293945312,2.4111203796755665,,,
20798.0,567.59033203125,2.651673498773453,,,
20814.0,559.31103515625,2.8473561310909594,,,
20829.0,539.8707885742188,3.0003050207579567,,,
20845.0,510.6099853515625,3.1113154801073795,,,
20860.0,473.8349609375,3.1754568063427318,,,
20876.0,432.0725708007813,3.196008847133625,,,
20892.0,387.7750244140625,3.176825358328212,,,
20907.0,343.23602294921875,3.122031743622993,,,
20923.0,300.8267822265625,3.038581951221154,,,
20939.0,261.68017578125,2.940769317960709,,,
20954.0,224.98214721679688,2.828976919563268,,,
20970.0,187.84869384765625,2.702180694919654,,,
20985.0,145.41519165039062,2.557810890765258,,,
21001.0,92.59420776367188,2.392219410039963,,,
21017.0,27.25424194335937,2.2016275813448822,,,
21032.0,-47.958831787109375,1.9831697333864984,,,
21048.0,-126.79766845703124,1.7397318030559603,,,
21064.0,-202.1856689453125,1.483060118709106,,,
21079.0,-270.0887145996094,1.2179225131046616,,,
21095.0,-331.4288330078125,0.9494373382167384,,,
21111.0,-390.12890625,0.6822268960034185,,,
21126.0,-449.6026611328125,0.420220940277118,,,
21142.0,-508.76116943359375,0.1728730055890235,,,
21157.0,-561.3109741210938,-0.0437470172197028,,,
21173.0,-597.9714965820312,-0.2312123584232134,,,
21189.0,-611.5771484375,-0.3924748462329179,,,
21204.0,-601.2799682617188,-0.5313242034818932,,,
21220.0,-573.7454833984375,-0.6516080170669519,,,
21236.0,-539.5074462890625,-0.7564263154914201,,,
21251.0,-508.534912109375,-0.8457539898772264,,,
21267.0,-485.3763427734375,-0.90999293693573,,,
21282.0,-469.182373046875,-0.9507290952618348,,,
21298.0,-454.978515625,-0.9684335703621746,,,
21314.0,-437.4444580078125,-0.9624943019699151,,,
21329.0,-413.7189331054688,-0.9317545414662216,,,
21345.0,-383.1563720703125,-0.8752322590923497,,,
21361.0,-346.9083251953125,-0.7984941249070735,,,
21376.0,-306.59979248046875,-0.7044458052917086,,,
21392.0,-263.5440673828125,-0.591457695561326,,,
21407.0,-218.66455078125,-0.4587347388272805,,,
21423.0,-173.4010009765625,-0.3063708009354079,,,
21439.0,-129.4354248046875,-0.135380761020577,,,
21454.0,-88.96502685546875,0.0367568815289829,,,
21470.0,-54.5316162109375,0.2035528994960261,,,
21486.0,-27.354736328125,0.3595575579419097,,,
21501.0,-7.63079833984375,0.5009712897875044,,,
21517.0,6.2498779296875,0.6258247943419406,,,
21532.0,17.526611328125,0.7336261613780749,,,
21548.0,30.2010498046875,0.8245844604503799,,,
21564.0,47.83624267578125,0.8987019272949212,,,
21579.0,71.45745849609375,0.955110140256637,,,
21595.0,99.0882568359375,0.9919595527220976,,,
21611.0,126.11724853515624,1.0069623947617268,,,
21626.0,147.6378173828125,0.9984059419024436,,,
21642.0,160.8468017578125,0.9662117401739644,,,
21657.0,165.888671875,0.9125352755485604,,,
21673.0,165.79693603515625,0.8415479319737539,,,
21689.0,164.83575439453125,0.7583881583003155,,,
21704.0,166.273681640625,0.6676656193649964,,,
21720.0,170.44659423828125,0.5721447682648143,,,
21736.0,175.03759765625,0.4721790246579997,,,
21751.0,175.9398193359375,0.3703352463324786,,,
21767.0,169.80767822265625,0.2651032470140927,,,
21782.0,155.08331298828125,0.1538070003858015,,,
21798.0,133.4339599609375,0.0340864367216278,,,
21814.0,108.55914306640624,-0.095563745820375,,,
21829.0,84.23583984375,-0.2356768283380854,,,
21845.0,62.34808349609375,-0.3825162630126451,,,
21861.0,42.009033203125,-0.5253429271815004,,,
21876.0,21.086181640625,-0.6620237433248733,,,
21892.0,-2.8568115234375,-0.7923752579628323,,,
21907.0,-30.38885498046875,-0.9178589816298416,,,
21923.0,-61.02197265625,-1.040775323180276,,,
21939.0,-93.52423095703124,-1.1632318860591857,,,
21954.0,-126.8326416015625,-1.2862169061135278,,,
21970.0,-160.6611328125,-1.4090901243445766,,,
21986.0,-195.40655517578125,-1.529694124406625,,,
22001.0,-231.87371826171875,-1.6450738399468023,,,
22017.0,-270.37841796875,-1.752507726518454,,,
22032.0,-310.977783203125,-1.8503228207956208,,,
22048.0,-352.8616943359375,-1.9379535358562727,,,
22064.0,-393.4280395507813,-2.0150060577600426,,,
22079.0,-428.02386474609375,-2.079622818232411,,,
22095.0,-449.1417846679688,-2.1269392173569512,,,
22111.0,-448.267822265625,-2.148575440550566,,,
22126.0,-417.9971923828125,-2.1337508266918914,,,
22142.0,-354.9813842773437,-2.0776398303700367,,,
22157.0,-262.2183837890625,-1.984995896446037,,,
22173.0,-149.0758056640625,-1.848134527633835,,,
22189.0,-29.593017578125,-1.6644328985591146,,,
22204.0,81.34967041015625,-1.436640080250795,,,
22220.0,172.47381591796875,-1.171995975401053,,,
22236.0,237.5225830078125,-0.8804917082229892,,,
22251.0,276.3510131835937,-0.5746509945892058,,,
22267.0,293.26971435546875,-0.2740897366726733,,,
22282.0,294.541259765625,0.0160418210041038,,,
22298.0,286.25372314453125,0.2925658325611577,,,
22314.0,273.04949951171875,0.5535237753852588,,,
22329.0,258.8006591796875,0.7977619866276986,,,
22345.0,247.0616455078125,1.0247365647528184,,,
22361.0,240.5413818359375,1.2342141858054978,,,
22376.0,239.51129150390625,1.4256515951282271,,,
22392.0,240.77423095703125,1.5973578484050086,,,
22407.0,237.53424072265625,1.7458491722745215,,,
22423.0,221.66925048828125,1.8658798822532023,,,
22439.0,187.1307373046875,1.9514012424293323,,,
22454.0,133.12994384765625,1.997272285134186,,,
22470.0,65.176025390625,2.0011450541369995,,,
22486.0,-6.449462890625,1.9647810356119129,,,
22501.0,-69.84149169921875,1.894212239558908,,,
22517.0,-114.98577880859376,1.798570053662044,,,
22532.0,-136.63275146484375,1.687891455426438,,,
22548.0,-135.616943359375,1.570581912850125,,,
22564.0,-118.0362548828125,1.4513371743810295,,,
22579.0,-95.18310546875,1.3301750874011544,,,
22595.0,-80.02642822265625,1.2028714184694425,,,
22611.0,-83.41961669921875,1.0626560904268942,,,
22626.0,-110.54400634765624,0.9026478274966754,,,
22642.0,-158.12786865234375,0.7182982722126963,,,
22657.0,-215.32440185546875,0.509137037102251,,,
22673.0,-266.5809326171875,0.2793437913811377,,,
22689.0,-297.7052001953125,0.0370432070183566,,,
22704.0,-300.3294677734375,-0.2074002467205896,,,
22720.0,-274.69464111328125,-0.4435416293354118,,,
22736.0,-228.32623291015625,-0.6628395081602884,,,
22751.0,-172.9945068359375,-0.8599378156068693,,,
22767.0,-120.6759033203125,-1.0329518988209094,,,
22782.0,-79.248291015625,-1.1827527725332507,,,
22798.0,-50.82196044921875,-1.3115172747589623,,,
22814.0,-31.516082763671875,-1.4210164210227634,,,
22829.0,-13.261993408203123,-1.5112009044292904,,,
22845.0,12.907989501953123,-1.5795685920054012,,,
22861.0,52.949066162109375,-1.6215528607446907,,,
22876.0,107.5828857421875,-1.631810570683654,,,
22892.0,172.02203369140625,-1.6059457490672289,,,
22907.0,237.81442260742188,-1.5420307851339594,,,
22923.0,295.8441162109375,-1.4413674831658856,,,
22939.0,339.4061889648437,-1.3082307683297756,,,
22954.0,365.9496765136719,-1.1487179417517197,,,
22970.0,376.7384948730469,-0.9691229580096172,,,
22986.0,375.3244018554688,-0.7743724868740272,,,
23001.0,366.2198486328125,-0.5670037071849447,,,
23017.0,354.0682678222656,-0.346999712374844,,,
23032.0,342.66473388671875,-0.1125871563731023,,,
23048.0,334.4160461425781,0.1381386123573826,,,
23064.0,329.3668212890625,0.4051569952610778,,,
23079.0,324.6806335449219,0.6846622345147966,,,
23095.0,315.396484375,0.9681142111244448,,,
23111.0,296.5057067871094,1.242730598353829,,,
23126.0,266.31463623046875,1.4934778998055065,,,
23142.0,228.46890258789065,1.7060124203826066,,,
23157.0,190.85818481445312,1.869571975182514,,,
23173.0,161.32452392578125,1.9787894019773853,,,
23189.0,143.4246826171875,2.0338534217215605,,,
23204.0,134.32696533203125,2.03917650052301,,,
23220.0,125.15252685546876,2.001365189190096,,,
23236.0,106.03219604492188,1.927484680137677,,,
23251.0,71.83148193359375,1.824266062372908,,,
23267.0,24.715850830078125,1.6982326204110088,,,
23282.0,-26.0115966796875,1.5561236259799691,,,
23298.0,-68.867919921875,1.40483154749116,,,
23314.0,-96.024169921875,1.2504478800613656,,,
23329.0,-107.58013916015624,1.09671371876206,,,
23345.0,-111.26788330078124,0.9437627189715652,,,
23361.0,-118.8609619140625,0.7881326067573018,,,
23376.0,-139.9044189453125,0.6244918330301876,,,
23392.0,-177.08624267578125,0.4486309324883796,,,
23407.0,-224.3541259765625,0.2604927607915868,,,
23423.0,-269.80401611328125,0.065815119516891,,,
23439.0,-301.29852294921875,-0.1245147662307585,,,
23454.0,-312.5775146484375,-0.297289332533124,,,
23470.0,-305.053466796875,-0.4409155631379025,,,
23486.0,-285.77642822265625,-0.5489185893908118,,,
23501.0,-263.7133178710937,-0.6217183183099205,,,
23517.0,-244.7496337890625,-0.6661428944645809,,,
23532.0,-230.8514404296875,-0.6930128578518303,,,
23548.0,-220.69708251953125,-0.7137289623978726,,,
23564.0,-213.25567626953125,-0.736960640594483,,,
23579.0,-208.52587890625,-0.766335417681761,,,
23595.0,-206.9058837890625,-0.7996555491590678,,,
23611.0,-207.46588134765625,-0.8297598303235374,,,
23626.0,-206.9989013671875,-0.8467592215481039,,,
23642.0,-200.9404296875,-0.8410250096300723,,,
23657.0,-184.8077392578125,-0.8060625261331422,,,
23673.0,-157.73443603515625,-0.7403810153411056,,,
23689.0,-121.7244873046875,-0.6477628926232196,,,
23704.0,-80.23016357421875,-0.5358972669302356,,,
23720.0,-36.44720458984375,-0.413956810323498,,,
23736.0,7.30352783203125,-0.2900782667084601,,,
23751.0,48.88116455078125,-0.1696710793031618,,,
23767.0,85.5782470703125,-0.0550555402324014,,,
23783.0,114.2305908203125,0.0536573289204983,,,
23798.0,132.347412109375,0.1570066047423728,,,
23814.0,140.06646728515625,0.2546760036448147,,,
23829.0,140.06622314453125,0.3446224106202123,,,
23845.0,136.93243408203125,0.4230692652682991,,,
23861.0,135.01055908203125,0.4852326230033145,,,
23876.0,136.46380615234375,0.5264185921730985,,,
23892.0,140.47955322265625,0.5430925194294363,,,
23908.0,143.434326171875,0.5336327529411893,,,
23923.0,140.6829833984375,0.4986475319218375,,,
23939.0,129.75531005859375,0.4408608705721688,,,
23954.0,111.16259765625,0.3646276502243722,,,
23970.0,88.21978759765625,0.2751503826909345,,,
23986.0,65.84869384765625,0.1775002114031069,,,
24001.0,47.3970947265625,0.0756249323179012,,,
24017.0,33.4027099609375,-0.028379193466788,,,
24033.0,21.33380126953125,-0.1344398398472248,,,
24048.0,7.57037353515625,-0.243974135952539,,,
24064.0,-10.79071044921875,-0.3587752592381426,,,
24079.0,-33.857177734375,-0.4797319777272392,,,
24095.0,-59.3714599609375,-0.6059031016344265,,,
24111.0,-84.1019287109375,-0.7343047653569671,,,
24126.0,-104.4979248046875,-0.8603995448084201,,,
24142.0,-117.0299072265625,-0.9789199173665226,,,
24158.0,-117.50439453125,-1.0845433583653494,,,
24173.0,-101.4678955078125,-1.1721411654516307,,,
24189.0,-65.90313720703125,-1.2367104956903354,,,
24204.0,-11.86761474609375,-1.273401869162283,,,
24220.0,53.568359375,-1.278054119795942,,,
24236.0,118.78704833984376,-1.2483197901330392,,,
24251.0,171.389404296875,-1.184991532884207,,,
24267.0,202.6629638671875,-1.0928114982784674,,,
24283.0,210.10919189453125,-0.980086493815324,,,
24298.0,197.694580078125,-0.856879847657405,,,
24314.0,173.68695068359375,-0.7322276534628681,,,
24329.0,147.5377197265625,-0.6114115947605075,,,
24345.0,126.7452392578125,-0.4944961605084874,,,
24361.0,115.36541748046876,-0.3769495327939761,,,
24376.0,112.799072265625,-0.2523188495230987,,,
24392.0,113.38592529296876,-0.1159733084748569,,,
24408.0,107.82666015625,0.0316745371806799,,,
24423.0,86.20111083984375,0.1839570225202182,,,
24439.0,42.50592041015625,0.3294021510483204,,,
24454.0,-21.669677734375,0.4552959002617774,,,
24470.0,-96.18072509765624,0.5518318572262416,,,
24486.0,-166.181884765625,0.6150933814680163,,,
24501.0,-218.29449462890625,0.6477417193626036,,,
24517.0,-246.28668212890625,0.6574097760147904,,,
24533.0,-252.05206298828125,0.6538019686559061,,,
24548.0,-243.12384033203125,0.645867417072509,,,
24564.0,-228.4739990234375,0.6400471668619604,,,
24579.0,-214.14324951171875,0.6398251354294151,,,
24595.0,-201.7166748046875,0.646144777502363,,,
24611.0,-190.2763061523437,0.658041903036286,,,
24626.0,-178.62933349609375,0.6730943436186803,,,
24642.0,-166.67462158203125,0.6877175240056146,,,
24658.0,-155.69781494140625,0.6976016587021125,,,
24673.0,-146.95257568359375,0.6985239651131252,,,
24689.0,-140.11529541015625,0.6874615713538499,,,
24704.0,-131.751708984375,0.6636176906026416,,,
24720.0,-116.250732421875,0.6288763229362765,,,
24736.0,-88.48016357421875,0.5873899065118848,,,
24751.0,-47.43231201171875,0.5443777669336857,,,
24767.0,2.16192626953125,0.5045703268057996,,,
24783.0,51.08209228515625,0.4708913661933411,,,
24798.0,89.260009765625,0.4438547445118191,,,
24814.0,110.0548095703125,0.4218283757650814,,,
24829.0,113.914306640625,0.4019523328223713,,,
24845.0,107.3251953125,0.381270269256788,,,
24861.0,98.96466064453124,0.357642536132484,,,
24876.0,94.71240234375,0.3302140805497809,,,
24892.0,95.3824462890625,0.2994575874488128,,,
24908.0,97.1998291015625,0.2669455524610017,,,
24923.0,96.13552856445312,0.2349748806846625,,,
24939.0,90.998046875,0.2060610747729,,,
24954.0,83.6656494140625,0.182278819491808,,,
24970.0,77.06988525390625,0.1645258464257266,,,
24986.0,72.036376953125,0.1519646387306251,,,
25001.0,65.87603759765625,0.1419939227573975,,,
25017.0,53.926361083984375,0.1309867899863618,,,
25033.0,33.002166748046875,0.1157074170012398,,,
25048.0,4.418121337890625,0.0949358673842148,,,
25064.0,-25.238494873046875,0.0706024006399857,,,
25079.0,-46.9835205078125,0.0478035144627225,,,
25095.0,-53.29962158203125,0.0334392095571333,,,
25111.0,-41.739013671875,0.0337373661702256,,,
25126.0,-16.33544921875,0.0514182421707757,,,
25142.0,12.563201904296877,0.0835139723862106,,,
25158.0,32.2564697265625,0.120769371807893,,,
25173.0,32.362548828125,0.1490883930289361,,,
25189.0,9.08856201171875,0.1527729685536447,,,
25204.0,-33.35467529296875,0.1185842264135497,,,
25220.0,-84.95407104492188,0.0392543021711159,,,
25236.0,-133.94720458984375,-0.0847881542418514,,,
25251.0,-172.1011962890625,-0.246056460272335,,,
25267.0,-197.5565185546875,-0.4326783805165866,,,
25283.0,-214.08038330078125,-0.6320255956556078,,,
25298.0,-227.0785522460937,-0.833956613039543,,,
25314.0,-240.5545654296875,-1.032608300351752,,,
25329.0,-254.73321533203125,-1.2263043260208597,,,
25345.0,-266.0676574707031,-1.4158335008652292,,,
25361.0,-269.3950500488281,-1.6018446078864774,,,
25376.0,-260.05889892578125,-1.7823107752996847,,,
25392.0,-234.53009033203125,-1.950953315646812,,,
25408.0,-191.090576171875,-2.097226220702716,,,
25423.0,-130.20101928710938,-2.2079843005997466,,,
25439.0,-55.138519287109375,-2.2703708362166246,,,
25454.0,27.90728759765625,-2.2749504416081314,,,
25470.0,111.3385009765625,-2.2179341404767343,,,
25486.0,189.2704467773437,-2.1016650421954632,,,
25501.0,259.8643798828125,-1.9332710132664483,,,
25517.0,325.824462890625,-1.7221902662680777,,,
25533.0,391.7616271972656,-1.4777006359155365,,,
25548.0,459.7091064453125,-1.2074032707915097,,,
25564.0,526.7828369140625,-0.9169690674616,,,
25579.0,586.3533935546875,-0.6269473757225942,,,
25595.0,631.7042236328125,-0.3437226877361151,,,
25611.0,659.5868530273438,-0.0662719413577897,,,
25626.0,671.6063842773438,0.20664208203496,,,
25642.0,671.133544921875,0.4761821869997722,,,
25658.0,659.2342529296875,0.7432764166734251,,,
25673.0,631.9906616210938,1.0083376372415722,,,
25689.0,581.8914794921875,1.270800794985749,,,
25704.0,503.3298645019531,1.5117429619255864,,,
25720.0,397.7704772949219,1.7029786378222995,,,
25736.0,275.285400390625,1.834958427023199,,,
25751.0,151.04681396484375,1.90287629226101,,,
25767.0,39.264739990234375,1.9078884239861265,,,
25783.0,-52.66644287109375,1.856665884639769,,,
25798.0,-125.39385986328124,1.759442388364861,,,
25814.0,-185.10870361328125,1.627360688685785,,,
25829.0,-238.555419921875,1.4701660600325583,,,
25845.0,-288.8065490722656,1.2950421039622593,,,
25861.0,-333.9340515136719,1.1067909025732572,,,
25876.0,-369.3732604980469,0.908946868222296,,,
25892.0,-391.4453430175781,0.7050843712797812,,,
25908.0,-398.3040161132813,0.499658825060639,,,
25923.0,-390.7544860839844,0.2981061484331557,,,
25939.0,-370.7332763671875,0.1063613202786919,,,
25954.0,-339.5168151855469,-0.0698064990662338,,,
25970.0,-298.14947509765625,-0.225304509535207,,,
25986.0,-248.46212768554688,-0.3559930160245228,,,
26001.0,-194.27114868164065,-0.4588956715464153,,,
26017.0,-141.50177001953125,-0.5325666159508339,,,
26033.0,-96.7017822265625,-0.5776650198492516,,,
26048.0,-64.525390625,-0.5975032067305606,,,
26064.0,-46.12713623046875,-0.5981334840021488,,,
26079.0,-39.02105712890625,-0.5875765422675443,,,
26095.0,-38.41534423828125,-0.5741007202795566,,,
26111.0,-38.45831298828125,-0.5639225100143844,,,
26126.0,-33.69049072265625,-0.5591033911274415,,,
26142.0,-20.11663818359375,-0.5565464849358635,,,
26158.0,3.64300537109375,-0.5487207823598141,,,
26173.0,35.94873046875,-0.5261074568575118,,,
26189.0,70.75885009765625,-0.4806123815157281,,,
26204.0,99.17926025390624,-0.4086735267335302,,,
26220.0,111.8282470703125,-0.3128040255203991,,,
26236.0,102.60369873046876,-0.2009085535652172,,,
26251.0,71.4130859375,-0.0836477617014912,,,
26267.0,24.26812744140625,0.0290392806169171,,,
26283.0,-28.858154296875,0.1308201445058386,,,
26298.0,-77.666259765625,0.220162590202653,,,
26314.0,-114.8980712890625,0.2995422616774567,,,
26329.0,-138.34600830078125,0.3732290389845363,,,
26345.0,-150.39361572265625,0.4447249837655395,,,
26361.0,-155.16455078125,0.5148994479216007,,,
26376.0,-156.08282470703125,0.5814046908240792,,,
26392.0,-154.55816650390625,0.639345475702365,,,
26408.0,-150.09661865234375,0.6827070938315482,,,
26423.0,-141.39007568359375,0.7058689928001068,,,
26439.0,-128.2039794921875,0.7046374164057974,,,
26454.0,-112.31402587890624,0.6765170232647362,,,
26470.0,-97.23529052734376,0.6202834804775876,,,
26486.0,-87.04083251953125,0.5352040662698918,,,
26501.0,-84.7381591796875,0.4203856193112107,,,
26517.0,-90.62255859375,0.2746462964428348,,,
26533.0,-102.2001953125,0.0970248607926342,,,
26548.0,-115.29833984375,-0.1123158302879707,,,
26564.0,-125.55633544921876,-0.3512668311365174,,,
26580.0,-130.069091796875,-0.5992855702967985,,,
26595.0,-128.42681884765625,-0.8475780767998856,,,
26611.0,-121.38116455078124,-1.0935150193042462,,,
26626.0,-108.66583251953124,-1.334133037236151,,,
26642.0,-88.98760986328125,-1.566057854551502,,,
26658.0,-60.5147705078125,-1.7854678471544847,,,
26673.0,-21.679931640625,-1.9882974646273937,,,
26689.0,27.26318359375,-2.170766622905425,,,
26705.0,83.73834228515625,-2.313207320355573,,,
26720.0,142.83203125,-2.389990074929486,,,
26736.0,198.4979248046875,-2.397338507504432,,,
26751.0,244.2279663085937,-2.3382878874211355,,,
26767.0,274.54461669921875,-2.2220630595870285,,,
26783.0,286.3857421875,-2.0618304717901923,,,
26798.0,279.69757080078125,-1.871707192063545,,,
26814.0,256.890869140625,-1.6641656637185172,,,
26830.0,222.4356689453125,-1.448666360706888,,,
26845.0,181.0943603515625,-1.2316881005395697,,,
26861.0,136.5361328125,-1.0176918572059968,,,
26876.0,91.00323486328124,-0.8102753960099314,,,
26892.0,46.12420654296875,-0.612935958291897,,,
26908.0,3.71246337890625,-0.4292724303357111,,,
26923.0,-33.8336181640625,-0.2628227100721304,,,
26939.0,-63.73748779296875,-0.1168295527299495,,,
26955.0,-84.76312255859375,0.0059404313622154,,,
26970.0,-97.99237060546876,0.1034395834830089,,,
26986.0,-106.0101318359375,0.1748350716976259,,,
27001.0,-110.82427978515624,0.2212688301379646,,,
27017.0,-111.91943359375,0.2465764066833886,,,
27033.0,-106.038330078125,0.2574543083991626,,,
27048.0,-89.50030517578125,0.2626626369357196,,,
27064.0,-61.2703857421875,0.2712445709687412,,,
27080.0,-24.42620849609375,0.2902354327139731,,,
27095.0,14.319580078125,0.3226577137586268,,,
27111.0,46.99267578125,0.3665874088419628,,,
27126.0,67.86358642578125,0.4157383094581636,,,
27142.0,75.41436767578125,0.461492551435941,,,
27158.0,72.1986083984375,0.4958028108594699,,,
27173.0,64.1572265625,0.5140646779185989,,,
27189.0,58.53955078125,0.5170033683716381,,,
27205.0,61.28955078125,0.5108712179006393,,,
27220.0,74.89593505859375,0.5057724847050109,,,
27236.0,97.42022705078124,0.512583179887468,,,
27251.0,122.2392578125,0.5394874327232972,,,
27267.0,139.8919677734375,0.5893609640674254,,,
27283.0,141.5308837890625,0.6589550596169418,,,
27298.0,122.4166259765625,0.740141012809093,,,
27314.0,84.30816650390625,0.8226513619051933,,,
27330.0,34.41827392578125,0.8971784427048184,,,
27345.0,-17.0048828125,0.9576384375918404,,,
27361.0,-60.911376953125,1.001897674011237,,,
27376.0,-92.593017578125,1.031025757228979,,,
27392.0,-112.28704833984376,1.0477846525985255,,,
27408.0,-122.71441650390624,1.055264439037515,,,
27423.0,-126.91583251953124,1.0562729391764905,,,
27439.0,-125.49456787109376,1.0534947208726535,,,
27455.0,-117.09564208984376,1.0499164504371368,,,
27470.0,-100.5224609375,1.0488684538221835,,,
27486.0,-77.3031005859375,1.0533270185820056,,,
27501.0,-53.0166015625,1.0646689793278736,,,
27517.0,-36.7467041015625,1.0815329542065435,,,
27533.0,-37.55316162109375,1.0995284024273886,,,
27548.0,-60.13214111328125,1.1121662334703233,,,
27564.0,-101.785400390625,1.1127513081784306,,,
27580.0,-153.29345703125,1.0964316505628275,,,
27595.0,-202.2176513671875,1.0614592632296571,,,
27611.0,-237.9239501953125,1.0090793914675953,,,
27626.0,-255.803955078125,0.9421426470872052,,,
27642.0,-257.5165405273437,0.8631634922563168,,,
27658.0,-248.9686889648437,0.7728001841963247,,,
27673.0,-236.6674194335937,0.669494471765536,,,
27689.0,-224.81964111328125,0.5504301209092151,,,
27705.0,-213.8050231933593,0.4133454548621324,,,
27720.0,-201.11233520507807,0.2583534673918631,,,
27736.0,-183.18472290039065,0.0889328367018845,,,
27751.0,-157.20272827148438,-0.0883753227602792,,,
27767.0,-123.56182861328124,-0.2654674630970558,,,
27783.0,-86.48095703125,-0.4347597846642855,,,
27798.0,-53.525726318359375,-0.5909865337976105,,,
27814.0,-32.47357177734375,-0.7319820577700888,,,
27830.0,-28.66009521484375,-0.8581889821146437,,,
27845.0,-41.08050537109375,-0.9712380853901208,,,
27861.0,-62.578216552734375,-1.07237602867565,,,
27876.0,-82.93563842773438,-1.1615362517034524,,,
27892.0,-93.69549560546876,-1.2374317045963426,,,
27908.0,-91.81494140625,-1.2984311626762255,,,
27923.0,-80.34124755859375,-1.3435373685196852,,,
27939.0,-65.1873779296875,-1.3727957176541477,,,
27955.0,-49.994537353515625,-1.3869206248954875,,,
27970.0,-34.279083251953125,-1.386525761215736,,,
27986.0,-14.125396728515623,-1.3716707053400112,,,
28001.0,14.566192626953123,-1.3422524011252797,,,
28017.0,51.962890625,-1.299181490390442,,,
28033.0,92.8948974609375,-1.2456761722989869,,,
28048.0,128.82855224609375,-1.187787793640117,,,
28064.0,151.89285278320312,-1.133603342558957,,,
28080.0,157.84207153320312,-1.091264016167357,,,
28095.0,147.9417724609375,-1.0665936384182064,,,
28111.0,127.90129089355467,-1.0613809686741018,,,
28126.0,105.22686767578124,-1.0730822450702615,,,
28142.0,86.92604064941406,-1.096065344122486,,,
28158.0,77.10807800292969,-1.123834554767997,,,
28173.0,76.11985778808594,-1.1512730213987206,,,
28189.0,81.99943542480469,-1.1759814102229662,,,
28205.0,92.25080871582033,-1.1982311393042402,,,
28220.0,105.4683074951172,-1.2196726398026807,,,
28236.0,122.2009735107422,-1.2414610297856703,,,
28251.0,143.2521209716797,-1.2626610674052754,,,
28267.0,168.16323852539062,-1.279604123449014,,,
28283.0,194.60626220703125,-1.2864050768437232,,,
28298.0,219.4413452148437,-1.2763387130711483,,,
28314.0,240.1746826171875,-1.2434604734795651,,,
28330.0,256.6065673828125,-1.1838623661459748,,,
28345.0,271.286376953125,-1.0962393797893777,,,
28361.0,287.439208984375,-0.9818227066722752,,,
28376.0,306.6156005859375,-0.8439961036444623,,,
28392.0,327.0776062011719,-0.6879200851243774,,,
28408.0,343.5370483398437,-0.5202721177984603,,,
28423.0,349.96337890625,-0.3489337351274083,,,
28439.0,342.1485900878906,-0.1823178711587119,,,
28455.0,320.687744140625,-0.0281456183959143,,,
28470.0,290.76763916015625,0.1081926610008114,,,
28486.0,260.5174865722656,0.2252021179781773,,,
28501.0,237.822265625,0.3261177051038628,,,
28517.0,226.7628631591797,0.4185027465446458,,,
28533.0,226.64678955078125,0.5125389183920137,,,
28548.0,233.04869079589844,0.6184563793964782,,,
28564.0,240.2445526123047,0.7439130285464296,,,
28580.0,244.06314086914065,0.8921547445363808,,,
28595.0,243.245361328125,1.0614692172977518,,,
28611.0,238.5807647705078,1.2459505562303463,,,
28626.0,230.451904296875,1.4371567260860822,,,
28642.0,217.46609497070312,1.6260398786296688,,,
28658.0,196.78944396972656,1.8045894020857944,,,
28673.0,166.18356323242188,1.966850881737681,,,
28689.0,126.20402526855467,2.1092345289030336,,,
28705.0,81.205810546875,2.2302144222748312,,,
28720.0,37.366943359375,2.329628338410773,,,
28736.0,0.53277587890625,2.407839180809293,,,
28751.0,-26.831817626953125,2.46502560705273,,,
28767.0,-47.246826171875,2.500817100540232,,,
28783.0,-67.71112060546875,2.514363064781818,,,
28798.0,-96.06472778320312,2.5047538862954566,,,
28814.0,-138.2860107421875,2.471571366396374,,,
28830.0,-195.55874633789065,2.415316877418651,,,
28845.0,-263.2724914550781,2.3375668109720964,,,
28861.0,-332.3940734863281,2.2408694102072784,,,
28876.0,-392.0647888183594,2.128515828329656,,,
28892.0,-433.8105773925781,2.0043186972163927,,,
28908.0,-454.7347412109375,1.8724279811164168,,,
28923.0,-456.9201354980469,1.7370944055912645,,,
28939.0,-445.3680114746094,1.6022553134849309,,,
28955.0,-424.915283203125,1.4709087580450704,,,
28970.0,-398.8201293945313,1.3444106619012637,,,
28986.0,-368.8055419921875,1.221968377002346,,,
29001.0,-337.385986328125,1.1006145102006946,,,
29017.0,-309.5298156738281,0.9758008747626554,,,
29033.0,-291.6766052246094,0.8425138816854744,,,
29048.0,-289.95721435546875,0.6965942503807938,,,
29064.0,-306.365966796875,0.5358526883308662,,,
29080.0,-337.7843017578125,0.3606519512836549,,,
29095.0,-376.2438354492188,0.1738333505568834,,,
29111.0,-411.95208740234375,-0.0198993308838546,,,
29126.0,-436.0093078613281,-0.2148728124293245,,,
29142.0,-442.9349365234375,-0.4053372285313461,,,
29158.0,-430.9831848144531,-0.5861888544804148,,,
29173.0,-401.2784423828125,-0.753485230194753,,,
29189.0,-357.5829162597656,-0.9047743596825046,,,
29205.0,-304.5153503417969,-1.0392147509831913,,,
29220.0,-247.40005493164065,-1.1573841221344974,,,
29236.0,-190.1724548339844,-1.2606811760062175,,,
29252.0,-134.43447875976562,-1.3503829188980008,,,
29267.0,-78.81973266601562,-1.4266660254670789,,,
29283.0,-19.94512939453125,-1.4880631795155894,,,
29298.0,45.4578857421875,-1.531741969146026,,,
29314.0,118.4124755859375,-1.5546418840135916,,,
29330.0,196.19558715820312,-1.555044639859427,,,
29345.0,272.80633544921875,-1.5338494650070913,,,
29361.0,340.0462646484375,-1.4948898358117504,,,
29377.0,391.10650634765625,-1.4440756753861426,,,
29392.0,422.363525390625,-1.3877557059655394,,,
29408.0,434.3341064453125,-1.3311246909401135,,,
29423.0,430.4403991699219,-1.2774826311038896,,,
29439.0,414.0000915527344,-1.228669415258428,,,
29455.0,386.3971252441406,-1.1863113687595308,,,
29470.0,346.82391357421875,-1.1530268786802207,,,
29486.0,294.78436279296875,-1.1327474808268294,,,
29502.0,233.08941650390625,-1.1298275820033066,,,
29517.0,169.38951110839844,-1.1473403767914352,,,
29533.0,114.42233276367188,-1.1854568966231631,,,
29548.0,77.57260131835938,-1.2407812219099494,,,
29564.0,63.54649353027344,-1.306990566331558,,,
29580.0,69.87734985351562,-1.376430434914392,,,
29595.0,89.7252197265625,-1.4418616811796006,,,
29611.0,115.37083435058594,-1.4975960077917418,,,
29627.0,141.61520385742188,-1.539719319343848,,,
29642.0,165.93997192382812,-1.5656664158566742,,,
29658.0,187.1371459960937,-1.5737272656387165,,,
29673.0,203.7489776611328,-1.562979523542575,,,
29689.0,213.17469787597656,-1.53376063800257,,,
29705.0,213.2906646728516,-1.4883770594287058,,,
29720.0,202.7258758544922,-1.4315315330914224,,,
29736.0,182.1833648681641,-1.3700148449163718,,,
29752.0,152.18994140625,-1.3114884606423902,,,
29767.0,112.38998413085938,-1.2625478587073264,,,
29783.0,62.4508056640625,-1.2265827826280544,,,
29798.0,4.957916259765625,-1.2021457362108836,,,
29814.0,-52.49931335449219,-1.1825204999295225,,,
29830.0,-98.37213134765624,-1.1568913105517564,,,
29845.0,-120.74308776855467,-1.112980877173688,,,
29861.0,-113.9669952392578,-1.040422757190801,,,
29877.0,-81.47665405273438,-0.933739556106478,,,
29892.0,-35.239715576171875,-0.7938553911470612,,,
29908.0,9.761764526367188,-0.6276132004213265,,,
29923.0,42.26544189453125,-0.4455588162601454,,,
29939.0,58.74822998046875,-0.2589074359702694,,,
29955.0,63.377838134765625,-0.0768145502740986,,,
29970.0,64.301025390625,0.0952225889916517,,,
29986.0,68.80992126464844,0.2555948570146625,,,
30002.0,79.20533752441406,0.4057565435743281,,,
30017.0,92.329833984375,0.548929283854758,,,
30033.0,101.64508056640624,0.6888581262607574,,,
30048.0,100.95608520507812,0.8288906779520268,,,
30064.0,87.4161376953125,0.9714017969752132,,,
30080.0,62.4215087890625,1.1174707447015857,,,
30095.0,30.850494384765625,1.2667397647637229,,,
30111.0,-1.597900390625,1.4174567998065457,,,
30127.0,-29.8865966796875,1.5667346365288648,,,
30142.0,-50.91192626953125,1.7110059689665804,,,
30158.0,-63.43597412109375,1.846554617134987,,,
30173.0,-67.68057250976562,1.9699335991559328,,,
30189.0,-65.32855224609375,2.078104283627638,,,
30205.0,-59.38638305664063,2.168258671278007,,,
30220.0,-54.66015625,2.237466962780595,,,
30236.0,-56.390472412109375,2.282429405625587,,,
30252.0,-68.43084716796875,2.2996131951063465,,,
30267.0,-90.03854370117188,2.2858916323023712,,,
30283.0,-115.05618286132812,2.239538375352925,,,
30298.0,-133.55935668945312,2.161200406293724,,,
30314.0,-135.93807983398438,2.0544103890954823,,,
30330.0,-117.12423706054688,1.925348707808445,,,
30345.0,-78.82955932617188,1.7818610086438744,,,
30361.0,-28.96990966796875,1.6320395037186692,,,
30377.0,21.9957275390625,1.4828514337275065,,,
30392.0,65.453857421875,1.3392787550642746,,,
30408.0,96.53115844726562,1.2042345611022884,,,
30423.0,114.0465087890625,1.0792176952017527,,,
30439.0,119.39791870117188,0.9653597043502344,,,
30455.0,115.24642944335938,0.8643212642322509,,,
30470.0,103.96563720703124,0.7785102311127544,,,
30486.0,87.9813232421875,0.7103617848932734,,,
30502.0,69.103759765625,0.6608708235608496,,,
30517.0,47.57879638671875,0.6280059525644447,,,
30533.0,21.829986572265625,0.6058250112275976,,,
30548.0,-11.046356201171877,0.5849056051600037,,,
30564.0,-53.071807861328125,0.554156042089161,,,
30580.0,-103.617919921875,0.5034413821215501,,,
30595.0,-157.61666870117188,0.4260725746689878,,,
30611.0,-207.267333984375,0.3202650459595415,,,
30627.0,-244.5887451171875,0.1891306920856985,,,
30642.0,-264.9220275878906,0.03936770979229,,,
30658.0,-268.3661499023437,-0.1207422632623865,,,
30673.0,-258.8033142089844,-0.283295367592046,,,
30689.0,-242.4403686523437,-0.4421151858800407,,,
30705.0,-225.2872314453125,-0.593223184745382,,,
30720.0,-212.22491455078125,-0.73446047407672,,,
30736.0,-206.34915161132807,-0.8645273433250488,,,
30752.0,-208.6526794433593,-0.981877756426455,,,
30767.0,-217.69503784179688,-1.0839855272900225,,,
30783.0,-229.1197204589844,-1.1674101866794555,,,
30798.0,-236.45376586914065,-1.228776916942496,,,
30814.0,-233.581787109375,-1.266318971950267,,,
30830.0,-217.33673095703125,-1.28124075158812,,,
30845.0,-188.9476318359375,-1.2781117255073158,,,
30861.0,-153.32315063476562,-1.263906671094812,,,
30877.0,-117.083984375,-1.245999210347046,,,
30892.0,-85.252685546875,-1.230010555270207,,,
30908.0,-59.78753662109375,-1.2185409584459046,,,
30923.0,-39.733428955078125,-1.211350262847802,,,
30939.0,-23.433990478515625,-1.2067428098611197,,,
30955.0,-10.14178466796875,-1.2032184796744585,,,
30970.0,-0.202789306640625,-1.2002987494589816,,,
30986.0,6.627777099609375,-1.1979427985284672,,,
31002.0,13.96240234375,-1.1948622862261384,,,
31017.0,28.977020263671875,-1.186807015852388,,,
31033.0,60.17691040039063,-1.1660617613762465,,,
31048.0,112.03427124023438,-1.1228331804730514,,,
31064.0,181.58447265625,-1.048202658699291,,,
31080.0,257.0124206542969,-0.937426557923094,,,
31095.0,321.3010559082031,-0.792079185641605,,,
31111.0,359.4822998046875,-0.6200199433171106,,,
31127.0,365.2492370605469,-0.4331626458378146,,,
31142.0,343.4849548339844,-0.2440012007866015,,,
31158.0,307.5086364746094,-0.0623113458184549,,,
31173.0,272.6381225585937,0.1067772903423245,,,
31189.0,248.7794189453125,0.2628612168634849,,,
31205.0,237.9468688964844,0.4088032260776204,,,
31220.0,234.08465576171875,0.5485185452917097,,,
31236.0,227.22613525390625,0.6848321695484931,,,
31252.0,208.78924560546875,0.8179640134508656,,,
31267.0,173.938720703125,0.9448655809969796,,,
31283.0,122.54855346679688,1.059405072557807,,,
31298.0,58.746917724609375,1.1532915134506152,,,
31314.0,-11.012298583984377,1.217559561127202,,,
31330.0,-80.083740234375,1.2443421501964809,,,
31345.0,-143.27392578125,1.228558941069125,,,
31361.0,-197.2109375,1.1691209530801647,,,
31377.0,-240.8006591796875,1.0693494402432375,,,
31392.0,-273.4484558105469,0.93650701964861,,,
31408.0,-294.81463623046875,0.7805589641459277,,,
31423.0,-304.003662109375,0.6124485086527675,,,
31439.0,-300.8059387207031,0.4422633582691135,,,
31455.0,-286.8575744628906,0.2777086392711087,,,
31470.0,-266.35333251953125,0.123281820894954,,,
31486.0,-246.2009429931641,-0.0195782739987815,,,
31502.0,-232.24859619140625,-0.1513671517570074,,,
31517.0,-227.1032257080078,-0.2727905016668754,,,
31533.0,-228.2665863037109,-0.3831349543788477,,,
31548.0,-229.8850555419922,-0.4794803395542369,,,
31564.0,-225.82215881347656,-0.5571781213213395,,,
31580.0,-212.70977783203125,-0.611432496695842,,,
31595.0,-191.8599853515625,-0.6392609062979827,,,
31611.0,-167.25230407714844,-0.6408969761411928,,,
31627.0,-143.2874755859375,-0.6199703721777989,,,
31642.0,-122.36466979980467,-0.5824160872283692,,,
31658.0,-103.86273193359376,-0.534690158300883,,,
31673.0,-85.17481994628906,-0.4821612612842944,,,
31689.0,-64.88461303710938,-0.4283689057075121,,,
31705.0,-44.23565673828125,-0.3753187597131251,,,
31720.0,-28.137191772460938,-0.3244295695592261,,,
31736.0,-23.29576873779297,-0.2774510608859317,,,
31752.0,-34.6981201171875,-0.2367675406368883,,,
31767.0,-62.113258361816406,-0.2049010304241573,,,
31783.0,-99.01246643066406,-0.1834988557711383,,,
31798.0,-133.07131958007812,-0.1723888973381376,,,
31814.0,-150.74671936035156,-0.1692687613912898,,,
31830.0,-142.8504180908203,-0.1702771065687801,,,
31845.0,-109.13023376464844,-0.1712350430534094,,,
31861.0,-57.640769958496094,-0.1689759621705121,,,
31877.0,-1.87713623046875,-0.1621025907413362,,,
31892.0,46.007606506347656,-0.1507839226192649,,,
31908.0,80.99869537353516,-0.1357136158888423,,,
31923.0,106.705810546875,-0.1168373059761621,,,
31939.0,131.08819580078125,-0.0926470088949435,,,
31955.0,161.062744140625,-0.0606021460326058,,,
31970.0,197.6392974853516,-0.0186598331263893,,,
31986.0,234.47886657714844,0.0327353178694743,,,
32002.0,263.21923828125,0.0892067830271163,,,
32017.0,277.7345275878906,0.142423315068712,,,
32033.0,278.0458374023437,0.181794926111816,,,
32049.0,270.2448425292969,0.1974170290614133,,,
32064.0,262.1375732421875,0.1831948520806116,,,
32080.0,259.11041259765625,0.1389325683521639,,,
32095.0,261.76336669921875,0.0705413557974189,,,
32111.0,267.0233764648437,-0.0117558774933631,,,
32127.0,270.8266296386719,-0.0965777541760716,,,
32142.0,271.06768798828125,-0.1747527783066471,,,
32158.0,267.564453125,-0.241718647162351,,,
32174.0,260.7703552246094,-0.2981752562076518,,,
32189.0,250.31082153320312,-0.3488862934348579,,,
32205.0,234.57769775390625,-0.4001912525154599,,,
32220.0,211.5545654296875,-0.4572048588855072,,,
32236.0,181.384033203125,-0.5217105049996374,,,
32252.0,146.6487274169922,-0.5914134939128084,,,
32267.0,112.27253723144533,-0.6606564533962347,,,
32283.0,82.41998291015625,-0.7221378110730001,,,
32299.0,59.07144165039063,-0.7688379183645072,,,
32314.0,41.568634033203125,-0.7953847501866552,,,
32330.0,28.631622314453125,-0.7984672442272117,,,
32345.0,20.35821533203125,-0.7764440984283879,,,
32361.0,19.529449462890625,-0.7287146317113857,,,
32377.0,29.99267578125,-0.6554784446724004,,,
32392.0,52.93218994140625,-0.5581686609673967,,,
32408.0,84.36419677734375,-0.4403006881024045,,,
32424.0,115.53215026855467,-0.3080779564210886,,,
32439.0,135.59432983398438,-0.1701129342145964,,,
32455.0,136.61846923828125,-0.0360776150555493,,,
32470.0,116.71072387695312,0.085270414560599,,,
32486.0,79.73919677734375,0.1878259763996239,,,
32502.0,33.12298583984375,0.2688559130355355,,,
32517.0,-15.552108764648438,0.3284600825636729,,,
32533.0,-61.33158874511719,0.3682197610142598,,,
32549.0,-102.2506103515625,0.3898963066455713,,,
32564.0,-137.5852813720703,0.3949421607473941,,,
32580.0,-166.2377471923828,0.3850360474565534,,,
32595.0,-184.851318359375,0.3631914450325972,,,
32611.0,-188.1719665527344,0.3346088158870616,,,
32627.0,-171.31292724609375,0.3065674804880635,,,
32642.0,-132.3007049560547,0.2872022939165591,,,
32658.0,-73.40655517578125,0.2836610305456247,,,
32674.0,-1.756256103515625,0.3005173538833836,,,
32689.0,72.29231262207031,0.3392058063239651,,,
32705.0,138.7336883544922,0.3987066945029235,,,
32720.0,190.309814453125,0.4770370707245206,,,
32736.0,224.7968292236328,0.572673147739349,,,
32752.0,244.1339263916016,0.6850840673858912,,,
32767.0,252.59243774414065,0.8140731642455671,,,
32783.0,254.4769592285156,0.958315330564676,,,
32799.0,252.5497131347656,1.113955543380097,,,
32814.0,247.47824096679688,1.2741159756703433,,,
32830.0,239.09732055664065,1.4296508710727878,,,
32845.0,226.96600341796875,1.5707871136758325,,,
32861.0,209.49465942382807,1.6888158175778745,,,
32877.0,183.6771240234375,1.77704106513557,,,
32892.0,145.73629760742188,1.830712571938531,,,
32908.0,92.42440795898438,1.8463355863226163,,,
32924.0,23.93933868408203,1.821135874069383,,,
32939.0,-54.79047775268555,1.753310265927729,,,
32955.0,-134.2799072265625,1.6431071595812987,,,
32970.0,-203.6900634765625,1.4941355771585956,,,
32986.0,-253.6215057373047,1.3140162183409212,,,
33002.0,-279.59185791015625,1.1137552198322616,,,
33017.0,-282.8829650878906,0.9058823081079694,,,
33033.0,-268.32781982421875,0.702046745343998,,,
33049.0,-242.2533721923828,0.5110237562272671,,,
33064.0,-209.06765747070312,0.3378275668382249,,,
33080.0,-171.37680053710938,0.1840487841398205,,,
33095.0,-130.7223663330078,0.0489939650333612,,,
33111.0,-89.16482543945312,-0.0690136910760317,,,
33127.0,-49.300926208496094,-0.1716702927049966,,,
33142.0,-14.068809509277344,-0.260237049694903,,,
33158.0,14.545852661132812,-0.3355038808785612,,,
33174.0,36.15621948242188,-0.3979988381018919,,,
33189.0,50.89892578125,-0.4483273438528448,,,
33205.0,58.60563659667969,-0.4875761126035526,,,
33220.0,57.47373962402344,-0.5176725554550976,,,
33236.0,45.38264465332031,-0.5414945143462535,,,
33252.0,21.30072021484375,-0.5625135246840338,,,
33267.0,-13.152252197265623,-0.5839312434856665,,,
33283.0,-52.368255615234375,-0.6075910265318033,,,
33299.0,-87.92051696777344,-0.6332184161969194,,,
33314.0,-111.44610595703124,-0.6585359088452054,,,
33330.0,-117.69076538085938,-0.6804227462436021,,,
33345.0,-107.09039306640624,-0.6967081405717179,,,
33361.0,-85.75888061523438,-0.7077357188017721,,,
33377.0,-63.09097290039063,-0.7168329087806867,,,
33392.0,-47.53498840332031,-0.7293299918518585,,,
33408.0,-43.44474792480469,-0.7505404333889293,,,
33424.0,-50.49043273925781,-0.7836886255829011,,,
33439.0,-65.20846557617188,-0.8287983621251988,,,
33455.0,-84.48355102539062,-0.8830097501333452,,,
33470.0,-107.7427978515625,-0.9420038415446848,,,
33486.0,-136.74049377441406,-1.0016597358737431,,,
33502.0,-172.26820373535156,-1.0590638786713469,,,
33517.0,-212.2203521728516,-1.1124943083481948,,,
33533.0,-250.3980407714844,-1.1606627137659151,,,
33549.0,-279.5069580078125,-1.201899064635386,,,
33564.0,-293.39996337890625,-1.2338937747718328,,,
33580.0,-289.7580871582031,-1.254171136066068,,,
33595.0,-269.0340270996094,-1.2609702178299511,,,
33611.0,-233.0988006591797,-1.2539644667779954,,,
33627.0,-183.0096740722656,-1.2343742839319864,,,
33642.0,-118.65667724609376,-1.2043983449784077,,,
33658.0,-41.12492370605469,-1.166265150010045,,,
33674.0,46.1234130859375,-1.121384143401472,,,
33689.0,136.36773681640625,-1.0699986019706025,,,
33705.0,221.49075317382807,-1.0114895297711584,,,
33720.0,294.14453125,-0.9451886145157308,,,
33736.0,349.7279052734375,-0.8713466192544549,,,
33752.0,386.3245239257813,-0.7918328640097579,,,
33767.0,403.6044616699219,-0.7102216379177488,,,
33783.0,402.70989990234375,-0.6311269626473013,,,
33799.0,385.8841552734375,-0.5589225038460314,,,
33814.0,357.753173828125,-0.4962435190076324,,,
33830.0,325.6111755371094,-0.4428131258592376,,,
33845.0,297.6470947265625,-0.395088827223975,,,
33861.0,280.2443542480469,-0.3469737464538218,,,
33877.0,273.9232788085937,-0.2914513663670147,,,
33892.0,272.333740234375,-0.2226249688929673,,,
33908.0,264.5733337402344,-0.137437763720496,,,
33924.0,239.82424926757807,-0.0364293265665974,,,
33939.0,193.47268676757807,0.0767553928466805,,,
33955.0,129.9537353515625,0.1968831124146143,,,
33970.0,61.8387451171875,0.3190244715396025,,,
33986.0,4.9783935546875,0.4400198964698896,,,
34002.0,-28.0361328125,0.5589259577893865,,,
34017.0,-33.365997314453125,0.6763247933981497,,,
34033.0,-16.115142822265625,0.7928964548221916,,,
34049.0,12.02984619140625,0.9079659259535684,,,
34064.0,38.518157958984375,1.0187016247082452,,,
34080.0,54.361907958984375,1.120297176020764,,,
34095.0,56.45947265625,1.2070051740805068,,,
34111.0,46.2926025390625,1.273548245190519,,,
34127.0,27.398223876953125,1.316357146844147,,,
34142.0,3.315032958984375,1.3342618192041704,,,
34158.0,-23.1854248046875,1.3285434010360038,,,
34174.0,-49.23748779296875,1.302478495708526,,,
34189.0,-72.59820556640625,1.2605900765485187,,,
34205.0,-92.20193481445312,1.2077910833154832,,,
34220.0,-109.51922607421876,1.1485528839708183,,,
34236.0,-128.75289916992188,1.086213940840139,,,
34252.0,-154.781494140625,1.022559316015577,,,
34267.0,-190.15542602539065,0.9577962494628288,,,
34283.0,-232.92633056640625,0.8909793564397066,,,
34299.0,-276.1529541015625,0.8208026940038794,,,
34314.0,-310.113037109375,0.7465256083343511,,,
34330.0,-326.50634765625,0.6687070204557409,,,
34345.0,-321.7001953125,0.5894462770481463,,,
34361.0,-297.8043212890625,0.5119846167806023,,,
34377.0,-262.3182983398437,0.4397733385966545,,,
34392.0,-225.01873779296875,0.3753724961862679,,,
34408.0,-194.92724609375,0.3196834290554406,,,
34424.0,-178.25384521484375,0.2719364492990666,,,
34439.0,-176.27508544921875,0.2305403921542356,,,
34455.0,-185.5333251953125,0.1944755593651495,,,
34470.0,-199.1058959960937,0.1645940122502707,,,
34486.0,-208.9124755859375,0.1441765733341141,,,
34502.0,-208.1549072265625,0.1384219820749114,,,
34517.0,-193.47039794921875,0.1530410102296586,,,
34533.0,-165.3206787109375,0.1925129616194355,,,
34549.0,-126.79803466796876,0.2586215482947822,,,
34564.0,-82.08489990234375,0.3496283889800696,,,
34580.0,-35.61260986328125,0.4600823709319193,,,
34595.0,7.9765625,0.5810638718226647,,,
34611.0,42.982666015625,0.7007330495202352,,,
34627.0,63.1514892578125,0.8052671541249719,,,
34642.0,63.05462646484375,0.8803794815289097,,,
34658.0,41.38421630859375,0.9134393594035484,,,
34674.0,3.11309814453125,0.8958216333290199,,,
34689.0,-41.46661376953125,0.8247748553450931,,,
34705.0,-80.09930419921875,0.7040859407169974,,,
34721.0,-103.13507080078124,0.54320578490975,,,
34736.0,-107.39910888671876,0.3550885168930559,,,
34752.0,-96.89642333984376,0.153456754345535,,,
34767.0,-79.94677734375,-0.0496989382856661,,,
34783.0,-64.8302001953125,-0.2458336719184292,,,
34799.0,-56.66961669921875,-0.4306021372043497,,,
34814.0,-56.38623046875,-0.6037316637901862,,,
34830.0,-62.37176513671875,-0.7681313081798626,,,
34846.0,-72.33172607421875,-0.9283062669282957,,,
34861.0,-83.37933349609375,-1.0882189159195166,,,
34877.0,-91.47991943359376,-1.2490054245910576,,,
34892.0,-91.82940673828124,-1.4072679955208405,,,
34908.0,-79.59423828125,-1.5547358594704537,,,
34924.0,-52.046630859375,-1.679735361842811,,,
34939.0,-10.2626953125,-1.770209714590613,,,
34955.0,40.575225830078125,-1.8173165851506023,,,
34971.0,93.87515258789062,-1.8182988437490248,,,
34986.0,143.84393310546875,-1.7775704099839171,,,
35002.0,186.51483154296875,-1.7056658692019302,,,
35017.0,219.81610107421875,-1.6165099128526907,,,
35033.0,242.28811645507807,-1.523992121090559,,,
35049.0,252.7061462402344,-1.438899214604676,,,
35064.0,250.7118530273437,-1.3669418294982352,,,
35080.0,238.57980346679688,-1.308163961980745,,,
35096.0,222.19384765625,-1.2576688641963338,,,
35111.0,210.01666259765625,-1.207406877343767,,,
35127.0,209.34405517578125,-1.1486645625253913,,,
35142.0,222.24490356445312,-1.0747563325560845,,,
35158.0,243.5096130371093,-0.9832455807083312,,,
35174.0,261.7424621582031,-0.8769545623572463,,,
35189.0,264.1467590332031,-0.7632443430653707,,,
35205.0,241.98416137695312,-0.651609211419886,,,
35221.0,194.78005981445312,-0.5503490774523079,,,
35236.0,130.95108032226562,-0.4635976069069057,,,
35252.0,64.62191772460938,-0.3899614194196577,,,
35267.0,9.681610107421877,-0.3233881319075473,,,
35283.0,-25.38592529296875,-0.2558934869940172,,,
35299.0,-40.070068359375,-0.1809290817926277,,,
35314.0,-40.4593505859375,-0.0959049588785332,,,
35330.0,-34.172698974609375,-0.0028339665298857,,,
35346.0,-26.3927001953125,0.0930125482106218,,,
35361.0,-18.06845092773437,0.1856446066147457,,,
35377.0,-7.68426513671875,0.2708527666168486,,,
35392.0,5.782440185546875,0.3476040819181363,,,
35408.0,20.54180908203125,0.4178888240921948,,,
35424.0,32.47412109375,0.4852739348912389,,,
35439.0,37.055267333984375,0.5528876788815733,,,
35455.0,31.5838623046875,0.6216611951211327,,,
35471.0,15.61395263671875,0.6894427660002385,,,
35486.0,-9.41485595703125,0.7512317156179749,,,
35502.0,-41.005126953125,0.8003991400828582,,,
35517.0,-75.79891967773438,0.8304727864112769,,,
35533.0,-109.2142333984375,0.8369233266472517,,,
35549.0,-135.23095703125,0.8184292760112595,,,
35564.0,-147.911865234375,0.7773044842847873,,,
35580.0,-143.49505615234375,0.7190695591029518,,,
35596.0,-122.483154296875,0.6514143736034855,,,
35611.0,-89.95855712890625,0.5829240194866624,,,
35627.0,-54.09930419921875,0.521894700388721,,,
35642.0,-22.6114501953125,0.4754144211438047,,,
35658.0,0.2264404296875,0.4487374908909429,,,
35674.0,15.13336181640625,0.4449182162844733,,,
35689.0,26.31756591796875,0.4646809156795979,,,
35705.0,39.44317626953125,0.5065256986795162,,,
35721.0,58.25592041015625,0.5670512584258536,,,
35736.0,82.9893798828125,0.641429872896016,,,
35752.0,109.387451171875,0.7239546722307858,,,
35767.0,130.2789306640625,0.8086306059943085,,,
35783.0,137.9886474609375,0.8898559340036684,,,
35799.0,128.04248046875,0.9632414178186782,,,
35814.0,101.4439697265625,1.0264772883419275,,,
35830.0,65.24371337890625,1.0799427996397608,,,
35846.0,30.3055419921875,1.1266309043361211,,,
35861.0,7.42376708984375,1.171095296800574,,,
35877.0,2.303955078125,1.2175298593888917,,,
35892.0,13.14154052734375,1.2675711323340668,,,
35908.0,31.771484375,1.3186875403189715,,,
35924.0,46.4615478515625,1.363893553980707,,,
35939.0,46.6927490234375,1.393036247726785,,,
35955.0,27.065673828125,1.3952853717058094,,,
35971.0,-11.40765380859375,1.362012272681312,,,
35986.0,-61.7913818359375,1.289147637657594,,,
36002.0,-113.68115234375,1.1783489120664536,,,
36017.0,-156.66998291015625,1.036729954368661,,,
36033.0,-183.6527709960937,0.8753274357730326,,,
36049.0,-191.77130126953125,0.7067831001731538,,,
36064.0,-182.78839111328125,0.5428705875718808,,,
36080.0,-160.87237548828125,0.3924938265319545,,,
36096.0,-130.3258056640625,0.2606360805954057,,,
36111.0,-94.0390625,0.1484540872337854,,,
36127.0,-52.87738037109375,0.054343906552301,,,
36142.0,-7.48486328125,-0.0245242866318419,,,
36158.0,39.1669921875,-0.0908455690350061,,,
36174.0,80.42529296875,-0.1465003354783687,,,
36189.0,106.43280029296876,-0.1926984500658714,,,
36205.0,107.69219970703124,-0.2306815024455965,,,
36221.0,79.501953125,-0.2624741801193901,,,
36236.0,25.28533935546875,-0.2912174577326524,,,
36252.0,-43.9996337890625,-0.3208974883179619,,,
36267.0,-113.8360595703125,-0.3556291884556761,,,
36283.0,-172.32952880859375,-0.3988667198596319,,,
36299.0,-213.9740600585937,-0.4528928105319317,,,
36314.0,-240.85076904296875,-0.5187284448892702,,,
36330.0,-259.31500244140625,-0.5963548269068517,,,
36346.0,-275.154296875,-0.6850095667996459,,,
36361.0,-289.9552001953125,-0.7833718201686328,,,
36377.0,-300.2222900390625,-0.8896141965265029,,,
36392.0,-301.56512451171875,-1.0014249704975395,,,
36408.0,-292.1263427734375,-1.1160907317920787,,,
36424.0,-275.1982421875,-1.2306069169945917,,,
36439.0,-256.8148193359375,-1.3416884995767235,,,
36455.0,-242.024658203125,-1.445609255057798,,,
36471.0,-231.299560546875,-1.5379970501491893,,,
36486.0,-220.29620361328125,-1.61389855025995,,,
36502.0,-203.0150146484375,-1.6684086422214983,,,
36517.0,-175.57421875,-1.6978712282650226,,,
36533.0,-139.10577392578125,-1.701237265587036,,,
36549.0,-98.65252685546876,-1.6808864371736143,,,
36564.0,-60.00250244140625,-1.6423084408341009,,,
36580.0,-25.916748046875,-1.5925143244159534,,,
36596.0,5.02117919921875,-1.5376806160246053,,,
36611.0,37.3197021484375,-1.4809791119925677,,,
36627.0,75.951171875,-1.4215594627589505,,,
36642.0,123.60052490234376,-1.3552032319208422,,,
36658.0,179.69964599609375,-1.2764616424191064,,,
36674.0,240.12774658203125,-1.181444751783994,,,
36689.0,298.332275390625,-1.0701242883198876,,,
36705.0,346.84649658203125,-0.9471665194563572,,,
36721.0,378.731689453125,-0.8208621713220777,,,
36736.0,390.0467529296875,-0.7004620904341367,,,
36752.0,381.7840576171875,-0.5928842020494278,,,
36767.0,360.639404296875,-0.5000671012434218,,,
36783.0,336.7779541015625,-0.4180541659615726,,,
36799.0,320.6646728515625,-0.3382369282446751,,,
36814.0,318.83416748046875,-0.2503168540028325,,,
36830.0,332.31884765625,-0.1458367952436411,,,
36846.0,356.62091064453125,-0.0209188320646935,,,
36861.0,384.00579833984375,0.1227639984695208,,,
36877.0,407.2164306640625,0.278944273012074,,,
36892.0,420.85650634765625,0.4389810828722041,,,
36908.0,421.11468505859375,0.5942469313580581,,,
36924.0,404.40277099609375,0.7377233936468582,,,
36939.0,366.7625122070313,0.8644296678130604,,,
36955.0,304.49468994140625,0.9709716234309512,,,
36971.0,217.45343017578125,1.0548810937878716,,,
36986.0,111.08013916015624,1.114349629594392,,,
37002.0,-3.11016845703125,1.1485481335858625,,,
37017.0,-109.68951416015624,1.1582421843164217,,,
37033.0,-194.2593994140625,1.1461458459374292,,,
37049.0,-248.4925537109375,1.1165423982532654,,,
37064.0,-271.912841796875,1.0740795297553878,,,
37080.0,-271.47027587890625,1.0221193398638846,,,
37096.0,-258.43182373046875,0.9613595590105812,,,
37111.0,-243.86578369140625,0.8894766075234193,,,
37127.0,-235.380126953125,0.8022269464212733,,,
37142.0,-235.0751953125,0.6958670028032894,,,
37158.0,-239.54638671875,0.5701176728878246,,,
37174.0,-240.848388671875,0.4304790247799513,,,
37189.0,-230.17877197265625,0.288737319330025,,,
37205.0,-201.2081298828125,0.1610841736979208,,,
37221.0,-153.699951171875,0.064218007836704,,,
37236.0,-94.636962890625,0.0107230841929301,,,
37252.0,-36.22528076171875,0.0054645013241358,,,
37267.0,8.15399169921875,0.0444277822902252,,,
37283.0,29.0213623046875,0.1164616989023763,,,
37299.0,24.26763916015625,0.2071916107563501,,,
37314.0,-0.61761474609375,0.3035227445693182,,,
37330.0,-34.6983642578125,0.3970373725509644,,,
37346.0,-65.83038330078125,0.4852149131737209,,,
37361.0,-83.95501708984375,0.5704095775236051,,,
37377.0,-83.723388671875,0.6573948472910146,,,
37392.0,-65.81402587890625,0.7506497736823773,,,
37408.0,-36.4371337890625,0.8523567277714184,,,
37424.0,-5.36114501953125,0.9615397016775664,,,
37439.0,17.0196533203125,1.0742446695451815,,,
37455.0,23.22637939453125,1.1843902423579538,,,
37471.0,11.12939453125,1.2849209677322966,,,
37486.0,-15.8131103515625,1.3690288635389671,,,
37502.0,-50.55914306640625,1.4312966992154068,,,
37518.0,-85.4561767578125,1.4685897773525336,,,
37533.0,-114.53887939453124,1.4804509444330896,,,
37549.0,-135.3231201171875,1.4687712858731172,,,
37564.0,-148.3653564453125,1.4366983845478905,,,
37580.0,-155.99346923828125,1.387058074749843,,,
37596.0,-162.0255126953125,1.3208468066137382,,,
37611.0,-170.03399658203125,1.236427808889083,,,
37627.0,-182.66217041015625,1.1298555736582,,,
37643.0,-200.42681884765625,0.9963249499655376,,,
37658.0,-221.15216064453125,0.8322730546669669,,,
37674.0,-239.8653564453125,0.6373607283758239,,,
37689.0,-250.79644775390625,0.4155627634877252,,,
37705.0,-250.1493530273437,0.1749095849291697,,,
37721.0,-237.7557373046875,-0.0740784374391634,,,
37736.0,-217.6290283203125,-0.3207419614559259,,,
37752.0,-195.5262451171875,-0.55662589748475,,,
37768.0,-175.86553955078125,-0.7770627681111677,,,
37783.0,-160.06988525390625,-0.9815659043034536,,,
37799.0,-146.3966064453125,-1.1730555676636183,,,
37814.0,-131.4300537109375,-1.3563269313976571,,,
37830.0,-112.591552734375,-1.5363318510749266,,,
37846.0,-89.89141845703125,-1.7167489272320806,,,
37861.0,-64.96343994140625,-1.8990514185194012,,,
37877.0,-39.65875244140625,-2.082016141446177,,,
37893.0,-14.03668212890625,-2.2614947116009967,,,
37908.0,13.55780029296875,-2.430339679113501,,,
37924.0,45.78466796875,-2.578569343857561,,,
37939.0,84.65545654296875,-2.6940162819468663,,,
37955.0,130.32354736328125,-2.763697212838048,,,
37971.0,181.11968994140625,-2.7759211898662803,,,
37986.0,234.23828125,-2.722799354783254,,,
38002.0,286.67547607421875,-2.6025001913022034,,,
38018.0,334.6986694335937,-2.4204822198422686,,,
38033.0,374.168212890625,-2.1891259853578835,,,
38049.0,400.5978393554688,-1.9256464034429264,,,
38064.0,409.5790100097656,-1.6487427476369352,,,
38080.0,399.3852233886719,-1.3749245322411343,,,
38096.0,371.6392822265625,-1.1156439066967123,,,
38111.0,332.29205322265625,-0.8761621086323554,,,
38127.0,289.2088623046875,-0.6565048304623504,,,
38143.0,249.130126953125,-0.4540919340168852,,,
38158.0,214.5595703125,-0.2669462085070282,,,
38174.0,183.55474853515625,-0.0960975459100147,,,
38189.0,151.53726196289062,0.0539125607152716,,,
38205.0,115.8538818359375,0.1767139213444147,,,
38221.0,78.87353515625,0.2672649409789239,,,
38236.0,47.61785888671875,0.3250450891776933,,,
38252.0,30.45004272460937,0.3557671915516953,,,
38268.0,32.9437255859375,0.3707362976434492,,,
38283.0,54.179443359375,0.3840438370699165,,,
38299.0,86.25994873046875,0.4087458538790385,,,
38314.0,118.63421630859376,0.4535630015681759,,,
38330.0,143.10302734375,0.5212960664355396,,,
38346.0,157.7734375,0.6092993905328197,,,
38361.0,166.84368896484375,0.7114604350458572,,,
38377.0,176.971923828125,0.8206274647434678,,,
38393.0,192.7742919921875,0.9304827737697712,,,
38408.0,212.6153564453125,1.036344195490017,,,
38424.0,228.846923828125,1.1349775772984636,,,
38439.0,230.76629638671875,1.223912672472072,,,
38455.0,209.31591796875,1.3008282730696124,,,
38471.0,161.30224609375,1.363356827290923,,,
38486.0,90.9716796875,1.4093286283944,,,
38502.0,8.27288818359375,1.437223167699628,,,
38518.0,-74.726318359375,1.4465365175638396,,,
38533.0,-147.9840087890625,1.4379032060791548,,,
38549.0,-206.47998046875,1.4130171683517014,,,
38564.0,-250.1785888671875,1.3745292088927894,,,
38580.0,-281.640380859375,1.3260617432748003,,,
38596.0,-303.16314697265625,1.2722985238508162,,,
38611.0,-315.16552734375,1.2189131986098602,,,
38627.0,-316.93634033203125,1.1720568621503498,,,
38643.0,-307.77166748046875,1.137303744390311,,,
